# Biokinesis-SDK Export,
# sensor_id: 1,
# label: Xiao_Arm,
# signal: emg_filtered,
# unit: uV,
# exported_at: 2026-05-02T23:18:19,
timestamp_us,emg_uV
987943625,-4498.517036
987944625,-10640.20693
987945625,-10476.0463
987946625,-7362.117477
987947625,-5284.292756
987948625,-4505.82749
987949625,-3417.649284
987950625,-1748.767242
987951625,-449.20583
987952625,49.944512
987953391,-4301.69358
987954391,-10768.40125
987955391,-10954.01849
987956391,-8059.484794
987957391,-5903.289479
987958391,-4737.254682
987959391,-3250.911634
987960391,-1477.887914
987961391,-304.531602
987962391,81.389777
987963157,-4416.840169
987964157,-10305.87753
987965157,-9996.416591
987966157,-6909.587577
987967157,-5018.088296
987968157,-4540.935108
987969157,-3707.753748
987970157,-2060.395697
987971157,-604.577542
987972157,19.089122
987972922,-4199.923916
987973922,-10722.77334
987974922,-10909.28375
987975922,-7866.483502
987976922,-5629.954565
987977922,-4667.917513
987978922,-3474.727865
987979922,-1762.281106
987980922,-447.481274
987981922,54.580519
987983664,-4535.102849
987984664,-10693.42707
987985664,-10793.87527
987986664,-7976.159983
987987664,-5773.246337
987988664,-4499.319964
987989664,-3068.832173
987990664,-1443.241965
987991664,-329.644194
987992664,69.053261
987993430,-4739.147552
987994430,-10330.59868
987995430,-9637.438079
987996430,-6556.129597
987997430,-5007.32278
987998430,-4762.269133
987999430,-3875.388546
988000430,-2094.961426
988001430,-592.050701
988002430,24.562649
988003196,-4783.536092
988004196,-10904.35118
988005196,-10588.09508
988006196,-7351.512387
988007196,-5234.678909
988008196,-4450.637562
988009196,-3359.519262
988010196,-1701.929405
988011196,-427.164973
988012196,54.164249
988095969,-4625.024008
988096969,-10510.71809
988097969,-10095.01685
988098969,-6905.825582
988099969,-4956.544855
988100969,-4346.623622
988101969,-3338.366789
988102969,-1694.757949
988103969,-424.190819
988104969,51.412207
988122336,-3725.427936
988123336,-9978.815185
988124336,-10326.42749
988125336,-7582.993555
988126336,-5514.655798
988127336,-4630.993573
988128336,-3525.967961
988129336,-1859.530602
988130336,-510.078074
988131336,38.097149
988132102,-4931.292048
988133102,-11112.01965
988134102,-10722.59232
988135102,-7509.153361
988136102,-5501.943404
988137102,-4736.247697
988138102,-3553.165133
988139102,-1797.186
988140102,-460.060428
988141102,51.558826
988141868,-4747.371662
988142868,-11396.54082
988143868,-11425.99167
988144868,-8212.161163
988145868,-5840.57923
988146868,-4675.223077
988147868,-3287.055869
988148868,-1551.429707
988149868,-343.476398
988150868,75.921623
988151633,-5288.762851
988152633,-12007.73962
988153633,-11552.08964
988154633,-7719.32699
988155633,-5146.381692
988156633,-4182.014804
988157633,-3044.237226
988158633,-1448.341998
988159633,-309.572874
988160633,77.200664
988182883,-4623.094978
988183883,-11217.64121
988184883,-11053.67642
988185883,-7559.215809
988186883,-5202.958303
988187883,-4545.420181
988188883,-3727.30615
988189883,-2093.742594
988190883,-615.834983
988191883,23.082773
988196555,-4934.399641
988197555,-11621.77312
988198555,-11582.76324
988199555,-8117.292292
988200555,-5483.686348
988201555,-4295.444321
988202555,-3098.258833
988203555,-1531.366448
988204555,-365.409563
988205555,66.460365
988206321,-5472.991836
988207321,-11840.84162
988208321,-11356.79656
988209321,-7645.949342
988210321,-5014.748138
988211321,-3874.755639
988212321,-2702.435083
988213321,-1239.081519
988214321,-241.411461
988215321,82.796124
988216086,-4108.546378
988217086,-10074.09945
988218086,-9984.891823
988219086,-7187.996197
988220086,-5478.53302
988221086,-4956.348537
988222086,-3929.257877
988223086,-2117.694927
988224086,-601.854651
988225086,26.047162
988225852,-4691.070659
988226852,-11379.73682
988227852,-11487.27154
988228852,-8196.658125
988229852,-5648.718402
988230852,-4445.634759
988231852,-3187.039353
988232852,-1563.506838
988233852,-369.821623
988234852,67.818389
988236594,-4815.83912
988237594,-10531.83666
988238594,-9980.608235
988239594,-6919.271044
988240594,-5190.98228
988241594,-4592.713843
988242594,-3395.695333
988243594,-1614.339869
988244594,-355.624132
988245594,68.966209
988246360,-5213.500659
988247360,-10218.34808
988248360,-9162.444867
988249360,-5365.794215
988250360,-2896.866745
988251360,-2278.000652
988252360,-1903.612105
988253360,-1070.154908
988254360,-292.554178
988255360,34.977351
988276633,-23220.02509
988277633,-10659.00508
988278633,1466.690059
988279633,6276.77576
988280633,9791.834662
988281633,18500.96064
988282633,25589.57022
988283633,21063.66038
988284633,9235.249683
988285633,1426.098478
988286399,11189.54557
988287399,25531.00209
988288399,22565.24406
988289399,12917.83677
988290399,9325.192046
988291399,12344.91686
988292399,13927.16435
988293399,9783.586488
988294399,3688.545426
988295399,344.25962
988296164,48424.34249
988297164,57801.21815
988298164,48107.26722
988299164,29759.44933
988300164,5009.679967
988301164,-28103.34259
988302164,-52881.98989
988303164,-47578.92042
988304164,-22060.78167
988305164,-3936.273425
988305930,-26837.28683
988306930,-58982.41969
988307930,-60946.85701
988308930,-47405.28195
988309930,-33402.15732
988310930,-18512.08633
988311930,-2483.133159
988312930,6207.121735
988313930,5053.087051
988314930,1603.710283
988316672,-47238.72648
988317672,-47930.121
988318672,-31052.81559
988319672,-4542.06279
988320672,23186.2549
988321672,44793.66496
988322672,50044.90575
988323672,35326.62927
988324672,14111.44189
988325672,2032.817928
988326438,37985.30362
988327438,38931.16011
988328438,23403.81379
988329438,4443.879212
988330438,-10653.31952
988331438,-23088.97468
988332438,-29351.52286
988333438,-23185.6674
988334438,-10108.69192
988335438,-1654.660014
988336204,-8469.418437
988337204,-15530.9442
988338204,-13160.11928
988339204,-8907.368187
988340204,-8129.467552
988341204,-8247.029333
988342204,-5765.55912
988343204,-2141.16967
988344204,-155.481732
988345204,205.377571
988345969,-31231.24808
988346969,-26149.80302
988347969,-17799.85859
988348969,-9876.078697
988349969,4279.374577
988350969,28830.10407
988351969,47599.58402
988352969,41225.10838
988353969,18630.73682
988354969,3113.642783
988356711,72569.09038
988357711,97583.40676
988358711,91205.14536
988359711,69157.893
988360711,31224.47744
988361711,-28312.35843
988362711,-78044.01376
988363711,-75877.40248
988364711,-36284.03175
988365711,-6786.582775
988366477,-65035.7817
988367477,-76250.15946
988368477,-55082.49489
988369477,-21061.87676
988370477,10797.65016
988371477,38002.09028
988372477,51739.11885
988373477,41381.90547
988374477,18119.67367
988375477,3061.207893
988376243,37440.29589
988377243,32754.72286
988378243,17494.40407
988379243,1974.307211
988380243,-12278.13246
988381243,-28438.53141
988382243,-38589.80689
988383243,-31426.73636
988384243,-13864.52124
988385243,-2246.820716
988386008,-36703.88229
988387008,-64354.31126
988388008,-66330.2243
988389008,-54852.62733
988390008,-35776.73865
988391008,-4811.977466
988392008,25858.83336
988393008,32500.56716
988394008,17316.28762
988395008,3712.2411
988396750,10267.38034
988397750,41891.52017
988398750,62145.15439
988399750,70465.22985
988400750,60224.35623
988401750,24361.03385
988402750,-17818.0901
988403750,-32577.70629
988404750,-18934.11177
988405750,-4327.445907
988406516,-19825.05279
988407516,-39644.30716
988408516,-40569.81461
988409516,-30005.56912
988410516,-17125.03139
988411516,-4057.920513
988412516,6454.689293
988413516,9053.956473
988414516,5019.904964
988415516,1217.476248
988416282,1855.644504
988417282,-11843.66525
988418282,-17495.49306
988419282,-19087.61892
988420282,-20803.34397
988421282,-20826.84279
988422282,-16075.98559
988423282,-8368.331392
988424282,-2392.126871
988425282,1.586375
988426047,7400.960123
988427047,-14468.96723
988428047,-26070.75724
988429047,-33745.22683
988430047,-40948.62293
988431047,-41047.88971
988432047,-29570.15156
988433047,-13680.12537
988434047,-3213.364318
988435047,256.072903
988436789,-26038.30115
988437789,-36032.06138
988438789,-27115.24616
988439789,-14344.29366
988440789,-7534.995644
988441789,-2235.477795
988442789,4696.121772
988443789,7623.671104
988444789,4582.808162
988445789,1100.237585
988446555,12015.11665
988447555,16832.67552
988448555,16381.81837
988449555,11150.69819
988450555,2004.030517
988451555,-9115.596621
988452555,-16080.49995
988453555,-13747.70186
988454555,-6157.726948
988455555,-1073.523926
988456321,-721.414619
988457321,2543.443214
988458321,10610.21633
988459321,17916.82586
988460321,15382.90121
988461321,353.780069
988462321,-15555.37306
988463321,-17962.8088
988464321,-9115.144282
988465321,-1768.631822
988466086,-42084.58554
988467086,-62837.46998
988468086,-63171.82807
988469086,-46279.27075
988470086,-15197.03174
988471086,24582.59047
988472086,51606.67865
988473086,46197.33942
988474086,21180.20722
988475086,3838.044004
988475852,51369.81361
988476852,51301.54185
988477852,32677.80831
988478852,6109.749776
988479852,-21046.81849
988480852,-44837.93931
988481852,-54038.5052
988482852,-40392.07693
988483852,-16826.69019
988484852,-2568.175521
988486594,-14717.43582
988487594,-39954.68926
988488594,-43030.04176
988489594,-35548.13761
988490594,-29125.13604
988491594,-22363.62894
988492594,-12182.21502
988493594,-3102.330353
988494594,551.795325
988495594,722.045175
988496360,-35691.76608
988497360,-46260.99915
988498360,-38875.02971
988499360,-24422.75932
988500360,-7813.663081
988501360,12891.59693
988502360,29186.78225
988503360,27603.01802
988504360,13152.32039
988505360,2468.050369
988506125,37394.64791
988507125,40059.65297
988508125,28475.72841
988509125,10003.51766
988510125,-10438.38923
988511125,-30550.99244
988512125,-40745.22889
988513125,-32140.34226
988514125,-13873.54724
988515125,-2241.785092
988515891,-29300.54315
988516891,-45242.27953
988517891,-37412.17792
988518891,-18158.70243
988519891,-2451.054529
988520891,5614.070551
988521891,7918.920309
988522891,6118.416505
988523891,2737.327599
988524891,609.316638
988526633,-2581.223691
988527633,-26332.17873
988528633,-39990.33096
988529633,-44974.4602
988530633,-40855.76159
988531633,-24724.14099
988532633,-3779.294744
988533633,7308.669774
988534633,5848.178144
988535633,1722.135237
988536399,-17820.84799
988537399,-11135.16029
988538399,-2856.066974
988539399,4301.147394
988540399,12013.43926
988541399,20561.76875
988542399,23890.93546
988543399,17483.60951
988544399,7089.320221
988545399,986.061725
988546164,48426.77284
988547164,41099.78888
988548164,21754.70976
988549164,875.78153
988550164,-20388.16659
988551164,-43838.38249
988552164,-56751.55827
988553164,-44796.37276
988554164,-19336.78269
988555164,-3030.976884
988555930,-52231.71864
988556930,-82785.11212
988557930,-75220.76974
988558930,-49951.77408
988559930,-23936.54238
988560930,3040.719855
988561930,24965.16368
988562930,27407.02819
988563930,14043.44463
988564930,2998.098842
988566672,-6551.079124
988567672,-7302.641248
988568672,-6016.548787
988569672,-3800.833487
988570672,-362.843532
988571672,4154.953709
988572672,6978.444348
988573672,5800.69004
988574672,2526.009177
988575672,422.452568
988576438,21809.45835
988577438,12886.43673
988578438,3945.836299
988579438,-3193.669469
988580438,-13000.33368
988581438,-27379.18015
988582438,-36202.16561
988583438,-28837.59444
988584438,-12453.63811
988585438,-1910.535982
988586204,-50281.34045
988587204,-71204.6253
988588204,-60317.94855
988589204,-34226.82545
988590204,-7849.059688
988591204,16228.33798
988592204,31498.46264
988593204,28266.57784
988594204,13213.10696
988595204,2525.348702
988595969,122.26826
988596969,-1547.855885
988597969,-1234.051666
988598969,1442.245779
988599969,3426.929186
988600969,1660.805771
988601969,-2185.341824
988602969,-3659.758946
988603969,-2087.530647
988604969,-427.240414
988606711,14982.9397
988607711,2814.024131
988608711,-3857.072225
988609711,-8181.468632
988610711,-17317.72338
988611711,-30511.66042
988612711,-36140.97671
988613711,-26593.4399
988614711,-10778.51351
988615711,-1466.773874
988616477,-35047.63678
988617477,-57337.65508
988618477,-53460.08671
988619477,-37014.84368
988620477,-19263.01045
988621477,87.424941
988622477,16420.91046
988623477,18939.5516
988624477,9877.293132
988625477,2146.966564
988626243,-20048.43946
988627243,-8069.453098
988628243,6988.354169
988629243,20143.05884
988630243,28019.51785
988631243,28377.55985
988632243,21137.40418
988633243,10680.75638
988634243,3019.441694
988635243,45.617246
988636008,26244.91188
988637008,17314.04442
988638008,1024.018511
988639008,-12893.70613
988640008,-20365.20691
988641008,-23622.98595
988642008,-22684.66588
988643008,-15630.90878
988644008,-6266.850334
988645008,-822.398641
988646750,-19170.38014
988647750,-37122.50952
988648750,-37111.92699
988649750,-26970.55399
988650750,-15480.09418
988651750,-4238.015914
988652750,4822.071341
988653750,7255.071302
988654750,4089.902659
988655750,1022.938518
988656516,298.169644
988657516,-25068.56523
988658516,-41714.13823
988659516,-52752.88699
988660516,-54008.69783
988661516,-35902.36979
988662516,-6573.510304
988663516,10442.96187
988664516,8683.499121
988665516,2494.888668
988666282,4504.538339
988667282,20872.09272
988668282,32589.47007
988669282,35454.74935
988670282,26113.92648
988671282,5401.178913
988672282,-14332.77698
988673282,-18510.8725
988674282,-9784.516319
988675282,-2082.644485
988676047,20692.91134
988677047,-6550.354259
988678047,-23762.07467
988679047,-32733.32262
988680047,-41331.7648
988681047,-48770.60985
988682047,-45511.02776
988683047,-28923.03012
988684047,-10464.56475
988685047,-1006.805982
988686789,-38657.82801
988687789,-62739.641
988688789,-54191.50777
988689789,-34980.7118
988690789,-21727.65478
988691789,-10050.99917
988692789,3274.713206
988693789,9609.663478
988694789,6312.027498
988695789,1693.952449
988696555,-32353.66184
988697555,-35552.19398
988698555,-28476.51259
988699555,-16524.60018
988700555,508.542215
988701555,23586.60827
988702555,40019.02447
988703555,34824.14123
988704555,15845.89104
988705555,2735.229111
988706321,26159.48291
988707321,50836.85312
988708321,50598.10672
988709321,40517.63751
988710321,30929.30407
988711321,16268.1605
988712321,-2775.640557
988713321,-12174.54313
988714321,-8178.931548
988715321,-2144.648755
988716086,46882.4626
988717086,5592.368532
988718086,-34413.52547
988719086,-65089.91223
988720086,-83252.05087
988721086,-83228.54641
988722086,-62430.62884
988723086,-31929.40919
988724086,-9136.089403
988725086,-119.964351
988725852,-71774.4742
988726852,-71469.60588
988727852,-41442.88251
988728852,-6260.076538
988729852,21488.13131
988730852,44735.23262
988731852,56487.45755
988732852,44501.1491
988733852,19353.91952
988734852,3141.536998
988736594,81584.5188
988737594,84679.70285
988738594,62175.37302
988739594,31429.41109
988740594,-6943.797948
988741594,-57212.86546
988742594,-92367.09781
988743594,-79237.43839
988744594,-35786.71013
988745594,-6101.03841
988746360,-79969.37613
988747360,-122895.8125
988748360,-108638.2765
988749360,-67359.92095
988750360,-26424.96076
988751360,11877.80465
988752360,39828.30747
988753360,40162.65767
988754360,19920.24295
988755360,4131.382418
988756125,-30954.15721
988757125,-22308.13778
988758125,-7607.532617
988759125,10778.55753
988760125,29812.62521
988761125,42614.80365
988762125,40908.35352
988763125,25655.26317
988764125,9175.898305
988765125,997.635141
988765891,64955.11907
988766891,46500.17412
988767891,13410.59717
988768891,-20269.56711
988769891,-49094.28641
988770891,-71037.09986
988771891,-74443.83037
988772891,-51922.40417
988773891,-20607.58292
988774891,-2756.354154
988776633,-52591.66649
988777633,-83060.30346
988778633,-70074.85959
988779633,-39265.69506
988780633,-15747.81045
988781633,-485.633135
988782633,10580.25977
988783633,13002.28773
988784633,7212.537315
988785633,1774.6594
988786399,-71760.63447
988787399,-57222.27761
988788399,-21104.01461
988789399,22658.90301
988790399,60680.09578
988791399,82120.2484
988792399,76986.72156
988793399,48285.90927
988794399,17482.42776
988795399,1966.813235
988796164,85356.09981
988797164,66547.58936
988798164,24645.43729
988799164,-16715.02126
988800164,-49843.52236
988801164,-77704.3384
988802164,-87425.39902
988803164,-64484.84458
988804164,-26723.61239
988805164,-3883.413338
988805930,-68581.83488
988806930,-102516.1272
988807930,-88710.24775
988808930,-54666.729
988809930,-22541.09131
988810930,8363.034534
988811930,32440.22174
988812930,33719.23313
988813930,16962.4035
988814930,3542.314663
988816672,-12168.3184
988817672,-9405.342504
988818672,-8548.099913
988819672,-9990.215588
988820672,-5708.324302
988821672,9425.927793
988822672,24357.80333
988823672,23812.29317
988824672,11378.38785
988825672,2030.862935
988826438,62158.45557
988827438,73086.25393
988828438,60645.22838
988829438,36150.02238
988830438,2197.084812
988831438,-41233.71056
988832438,-71266.14128
988833438,-61974.40667
988834438,-28158.7702
988835438,-4903.731811
988836204,-36243.16719
988837204,-71589.21893
988838204,-72527.31791
988839204,-57412.56818
988840204,-40694.16936
988841204,-18528.2382
988842204,5989.640451
988843204,16412.64082
988844204,10413.9512
988845204,2690.717623
988845969,-16633.9955
988846969,-13327.73638
988847969,-1694.569456
988848969,11760.75662
988849969,18967.22722
988850969,16093.16706
988851969,7073.770325
988852969,154.775592
988853969,-1320.756058
988854969,-523.420388
988856711,-1515.548903
988857711,-17493.52019
988858711,-24370.38394
988859711,-22663.42347
988860711,-17299.08176
988861711,-11266.10049
988862711,-5606.242798
988863711,-1610.500898
988864711,56.309505
988865711,309.758648
988866477,-4688.064547
988867477,-17264.79051
988868477,-17989.41044
988869477,-13631.33231
988870477,-12456.43587
988871477,-14365.28383
988872477,-13828.6466
988873477,-8819.85357
988874477,-3104.681739
988875477,-230.734746
988876243,-14768.33282
988877243,-24881.03767
988878243,-25027.07046
988879243,-21461.98762
988880243,-15790.81129
988881243,-4656.647904
988882243,7735.134622
988883243,11402.92921
988884243,6349.738748
988885243,1415.144492
988886008,23408.61752
988887008,22342.15673
988888008,14584.82737
988889008,773.901581
988890008,-16160.91001
988891008,-29902.08173
988892008,-32265.70245
988893008,-21886.57231
988894008,-8389.812808
988895008,-1109.440263
988896750,-5574.901563
988897750,-4255.826866
988898750,6099.981644
988899750,17237.30921
988900750,16959.81927
988901750,1154.523008
988902750,-17246.09263
988903750,-20740.8403
988904750,-10746.55821
988905750,-2093.180368
988906516,-53441.55405
988907516,-77264.83954
988908516,-71106.55612
988909516,-47317.44335
988910516,-15550.54039
988911516,21606.86746
988912516,48122.65252
988913516,44528.01412
988914516,20948.59861
988915516,3932.574276
988916282,43077.06731
988917282,50333.23014
988918282,43947.53661
988919282,30133.49765
988920282,6639.455258
988921282,-28675.97051
988922282,-55815.01618
988923282,-50508.5885
988924282,-23410.53761
988925282,-4149.378354
988926047,-41524.15329
988927047,-76919.17036
988928047,-75507.15106
988929047,-54490.34715
988930047,-31356.0601
988931047,-7563.662306
988932047,12835.24086
988933047,18260.00005
988934047,10209.38319
988935047,2449.431237
988936789,-31323.6685
988937789,-32231.40111
988938789,-19983.15926
988939789,-4435.392568
988940789,8782.716206
988941789,20537.60245
988942789,27015.47176
988943789,21778.46828
988944789,9629.344204
988945789,1597.300987
988946555,52501.82296
988947555,58518.21544
988948555,43935.0082
988949555,18582.55641
988950555,-11043.59278
988951555,-41061.57929
988952555,-56660.14096
988953555,-44982.83589
988954555,-19423.39127
988955555,-3166.958411
988956321,-34643.34383
988957321,-45179.52432
988958321,-31718.51175
988959321,-9364.217664
988960321,6235.446663
988961321,12176.39225
988962321,11856.39534
988963321,7884.991646
988964321,3196.55633
988965321,572.122332
988966086,9092.042005
988967086,-7596.915047
988968086,-18142.30237
988969086,-26330.92874
988970086,-33715.2054
988971086,-34029.97709
988972086,-23706.53831
988973086,-10035.95903
988974086,-1865.281648
988975086,368.005059
988975852,-12431.44203
988976852,-6596.022814
988977852,5705.231455
988978852,16550.32729
988979852,18453.28026
988980852,10424.99406
988981852,-365.661527
988982852,-5165.930284
988983852,-3411.458177
988984852,-837.944032
988986594,15503.28047
988987594,-15437.0111
988988594,-39082.9411
988989594,-50739.54489
988990594,-50700.22283
988991594,-38924.24649
988992594,-20074.82072
988993594,-4965.882569
988994594,709.780491
988995594,980.256202
989008079,-4882.550544
989009079,-11744.51775
989010079,-11627.61395
989011079,-6689.395982
989012079,-2282.427051
989013079,-1369.105088
989014079,-2431.615883
989015079,-2498.074638
989016079,-1198.927641
989017079,-152.554341
989017844,-11300.32696
989018844,-25299.46541
989019844,-30163.97974
989020844,-27398.14842
989021844,-18161.28582
989022844,-2980.683868
989023844,10699.25145
989024844,13306.08669
989025844,6969.816374
989026844,1500.689407
989027610,4085.259905
989028610,-899.150605
989029610,-3627.146318
989030610,-2886.849513
989031610,-2037.955812
989032610,-4638.946694
989033610,-8373.282206
989034610,-7972.526797
989035610,-3818.188037
989036610,-644.153716
989037375,2744.61291
989038375,-21382.02993
989039375,-29968.09853
989040375,-28361.55729
989041375,-27596.96276
989042375,-29481.56099
989043375,-27069.26192
989044375,-17200.83296
989045375,-6166.613377
989046375,-501.905621
989048118,-44913.97574
989049118,-63205.06683
989050118,-48976.65295
989051118,-21128.81335
989052118,431.158945
989053118,12790.03791
989054118,18147.43396
989055118,15109.73151
989056118,7002.511405
989057118,1385.891172
989057883,-6286.049322
989058883,-8992.514082
989059883,-9044.403366
989060883,-8426.068841
989061883,-6175.442293
989062883,-277.910239
989063883,6129.889934
989064883,7325.32704
989065883,3808.192286
989066883,772.828964
989067649,-4803.70484
989068649,21599.28713
989069649,44779.16273
989070649,61680.43903
989071649,61749.22375
989072649,35626.03533
989073649,-1313.592469
989074649,-19023.12366
989075649,-12896.11804
989076649,-3284.740427
989077414,19347.99663
989078414,-21407.41113
989079414,-46995.4479
989080414,-57566.14263
989081414,-61039.54201
989082414,-57560.40014
989083414,-43106.95286
989084414,-22318.28217
989085414,-6401.447467
989086414,16.869062
989088157,-51417.46329
989089157,-69444.31133
989090157,-54282.14179
989091157,-27078.71813
989092157,-4693.65647
989093157,12592.16257
989094157,23290.40562
989095157,20951.48328
989096157,9900.946323
989097157,1947.207572
989097922,1441.110084
989098922,-849.763423
989099922,-773.96245
989100922,1.665143
989101922,-1332.634844
989102922,-5116.248926
989103922,-7928.835667
989104922,-6637.854127
989105922,-2919.257764
989106922,-456.07219
989107688,-17674.78501
989108688,-21543.58976
989109688,-19087.07775
989110688,-16655.25953
989111688,-11905.07949
989112688,2156.713752
989113688,18590.95663
989114688,21384.55627
989115688,11071.67764
989116688,2190.671947
989117454,51785.84927
989118454,69634.42236
989119454,66318.39311
989120454,48030.3898
989121454,15255.50883
989122454,-30655.03869
989123454,-64598.20622
989124454,-58928.37176
989125454,-27369.66478
989126454,-4946.712152
989128196,-40694.34017
989129196,-75655.53127
989130196,-78440.18607
989131196,-63695.36233
989132196,-41462.92227
989133196,-9042.699569
989134196,22337.26963
989135196,30141.13705
989136196,16406.12748
989137196,3658.864028
989137961,-14728.51058
989138961,-20745.75327
989139961,-21117.10408
989140961,-16243.95331
989141961,-5503.999302
989142961,9832.066833
989143961,20810.15358
989144961,18780.99964
989145961,8637.813199
989146961,1548.516664
989147727,22320.82881
989148727,27652.38556
989149727,24596.1004
989150727,17981.58414
989151727,7218.002618
989152727,-10508.28037
989153727,-26003.22871
989154727,-25274.72618
989155727,-12178.25881
989156727,-2261.327671
989157493,-19938.75227
989158493,-41527.81357
989159493,-44566.80774
989160493,-36999.23776
989161493,-25446.67325
989162493,-9283.57444
989163493,6632.963089
989164493,11931.58705
989165493,6963.723857
989166493,1696.888601
989168235,-3579.988602
989169235,-9911.614041
989170235,-11316.88825
989171235,-11596.54323
989172235,-11876.1736
989173235,-9014.44741
989174235,-2964.816305
989175235,1345.422862
989176235,1620.338575
989177235,536.497626
989178000,10302.25723
989179000,4808.239918
989180000,1436.454304
989181000,128.477834
989182000,-4099.775629
989183000,-13919.78977
989184000,-21955.18445
989185000,-18948.82004
989186000,-8561.038502
989187000,-1395.223997
989187766,-32449.98791
989188766,-52370.15061
989189766,-48698.56788
989190766,-30127.75878
989191766,-8623.531234
989192766,10080.59591
989193766,20366.43165
989194766,17773.75248
989195766,8143.216034
989196766,1587.091836
989197532,-27532.0051
989198532,-41881.6192
989199532,-44689.90942
989200532,-34663.47216
989201532,-11384.53429
989202532,20123.46548
989203532,41389.77289
989204532,36722.28074
989205532,16717.56925
989206532,2984.386406
989207297,39395.41653
989208297,45700.06133
989209297,36659.07631
989210297,22086.43542
989211297,3774.025646
989212297,-21592.50864
989213297,-41693.28513
989214297,-38172.98116
989215297,-17902.47346
989216297,-3219.993383
989218039,-24424.02804
989219039,-57483.51245
989220039,-62350.50338
989221039,-52569.97519
989222039,-40049.95516
989223039,-22520.17433
989224039,-2181.070591
989225039,8463.285765
989226039,6502.179325
989227039,1945.25143
989227805,-27380.61574
989228805,-32095.93868
989229805,-22302.64469
989230805,-8684.636345
989231805,2048.487188
989232805,11181.5093
989233805,17073.35907
989234805,14695.53291
989235805,6766.100402
989236805,1220.013682
989247336,15623.71105
989248336,10677.46062
989249336,5321.550608
989250336,86.884552
989251336,-8168.972837
989252336,-20229.84366
989253336,-27806.66054
989254336,-22450.84987
989255336,-9771.124717
989256336,-1528.773385
989257102,-12771.19317
989258102,-39327.97179
989259102,-45644.8829
989260102,-42548.54762
989261102,-38035.1795
989262102,-27222.13691
989263102,-9858.355567
989264102,2409.47481
989265102,3926.687181
989266102,1476.511491
989266868,-10085.95911
989267868,-12565.18237
989268868,-8998.801377
989269868,-6444.200932
989270868,-6380.33374
989271868,-4091.703326
989272868,1062.056451
989273868,3868.373688
989274868,2552.443941
989275868,624.22362
989276633,3202.687604
989277633,10678.73697
989278633,14445.70527
989279633,13877.90533
989280633,9467.145594
989281633,2079.886158
989282633,-4620.36599
989283633,-6133.083739
989284633,-3297.154035
989285633,-727.650173
989307883,21791.30917
989308883,20453.16239
989309883,11191.5844
989310883,219.788624
989311883,-9300.101168
989312883,-17750.65211
989313883,-21696.85874
989314883,-16735.12397
989315883,-7156.3995
989316883,-1115.578578
989317649,-1267.810052
989318649,-11877.08914
989319649,-11297.65722
989320649,-7580.443162
989321649,-10157.67344
989322649,-17866.50477
989323649,-21203.142
989324649,-15276.1168
989325649,-5992.541658
989326649,-733.655131
989327414,-29378.91791
989328414,-33047.81526
989329414,-18872.83706
989330414,-252.151991
989331414,10760.02247
989332414,13510.22274
989333414,11869.83116
989334414,7729.247139
989335414,3106.987154
989336414,486.15165
989337180,4168.772796
989338180,8221.93475
989339180,14135.03283
989340180,19750.16839
989341180,17100.34952
989342180,1539.648076
989343180,-16064.55877
989344180,-19480.80892
989345180,-10119.76562
989346180,-2012.613317
989347922,-22693.93144
989348922,-48433.12101
989349922,-50702.50159
989350922,-37954.77241
989351922,-22219.71682
989352922,-6235.435722
989353922,7250.392254
989354922,11228.29906
989355922,6455.069762
989356922,1595.588809
989357688,-483.895964
989358688,5083.514688
989359688,14446.67494
989360688,18619.77278
989361688,10546.27443
989362688,-6137.505336
989363688,-18194.25377
989364688,-16716.40678
989365688,-7570.485596
989366688,-1335.248269
989367454,-12471.7875
989368454,-15156.59553
989369454,-10649.25578
989370454,-3541.25638
989371454,2156.416537
989372454,5889.187287
989373454,7326.195431
989374454,5658.474384
989375454,2454.759022
989376454,422.051252
989377219,19874.18488
989378219,15210.44744
989379219,9259.489272
989380219,3194.751536
989381219,-6937.710913
989382219,-22501.58924
989383219,-33051.44381
989384219,-27403.13859
989385219,-12108.65522
989386219,-1951.095111
989387961,-39529.92903
989388961,-65436.86946
989389961,-68146.49792
989390961,-56921.3075
989391961,-34095.00264
989392961,2811.907669
989393961,35978.26806
989394961,39720.9331
989395961,20064.04458
989396961,4069.698604
989397727,29632.45438
989398727,51211.00017
989399727,56367.76164
989400727,49860.35782
989401727,31038.3689
989402727,-2845.934701
989403727,-34364.73593
989404727,-38176.36055
989405727,-19355.84327
989406727,-3892.484017
989407493,-41875.35426
989408493,-73948.28171
989409493,-81727.91415
989410493,-69657.65422
989411493,-39045.65346
989412493,8688.972381
989413493,48588.91952
989414493,50715.28122
989415493,24985.25557
989416493,4938.548483
989417258,56113.57164
989418258,62603.92089
989419258,49504.63752
989420258,26426.85202
989421258,-4239.50193
989422258,-41963.39053
989423258,-66716.36245
989424258,-56553.42366
989425258,-25375.42835
989426258,-4320.297197
989428000,-60226.55873
989429000,-95330.85556
989430000,-93729.28001
989431000,-73742.84001
989432000,-43061.111
989433000,4314.058525
989434000,48593.46845
989435000,54473.97613
989436000,27873.62504
989437000,5694.935442
989437766,21609.59757
989438766,48372.5532
989439766,56159.53355
989440766,50857.73681
989441766,36140.37234
989442766,10491.73848
989443766,-15131.55202
989444766,-22250.04785
989445766,-12326.01694
989446766,-2785.580781
989447532,-7426.513012
989448532,-20535.16887
989449532,-28567.04702
989450532,-27728.48764
989451532,-16452.38328
989452532,1897.766841
989453532,16123.41634
989454532,16624.23803
989455532,8043.379957
989456532,1585.634662
989457297,34049.01779
989458297,17751.32988
989459297,-3820.868121
989460297,-25764.77059
989461297,-43422.53529
989462297,-50620.46894
989463297,-42744.53906
989464297,-24444.08061
989465297,-8035.624412
989466297,-611.88389
989468039,-33191.95354
989469039,-31899.16141
989470039,-14580.3684
989471039,4169.110016
989472039,14733.40274
989473039,18367.20342
989474039,17399.50388
989475039,11815.2555
989476039,4738.453372
989477039,682.241499
989477805,22596.14363
989478805,20369.21767
989479805,15483.66674
989480805,9076.566611
989481805,-3282.391588
989482805,-22936.74785
989483805,-37014.71132
989484805,-31614.98039
989485805,-14179.25273
989486805,-2358.116243
989487571,-45252.28669
989488571,-65942.89673
989489571,-61597.02588
989490571,-45168.56083
989491571,-22192.70352
989492571,10247.75738
989493571,38159.10332
989494571,39200.3433
989495571,19354.15628
989496571,3801.725143
989497336,-4198.172919
989498336,24815.64347
989499336,41078.76376
989500336,49021.68022
989501336,51078.53038
989502336,41484.01292
989503336,21382.40414
989504336,4263.863508
989505336,-1605.547816
989506336,-1245.088646
989507102,68253.93057
989508102,45281.97522
989509102,11231.80717
989510102,-19442.42387
989511102,-46933.75374
989512102,-73964.44406
989513102,-84418.40077
989514102,-62528.01079
989515102,-25877.55089
989516102,-3704.538546
989517844,-78494.15866
989518844,-112155.4056
989519844,-92708.59355
989520844,-51517.7785
989521844,-15042.71732
989522844,16069.468
989523844,37636.9596
989524844,36033.24269
989525844,17538.31016
989526844,3544.128955
989527610,-4645.138841
989528610,-5386.779332
989529610,-6418.456794
989530610,-9758.459984
989531610,-10828.83469
989532610,-3372.086876
989533610,8137.359744
989534610,11903.76197
989535610,6644.129868
989536610,1383.442471
989537375,24734.47995
989538375,57520.5533
989539375,69637.64715
989540375,64675.40126
989541375,44721.82055
989542375,9633.04483
989543375,-23593.65027
989544375,-31089.58606
989545375,-16626.8586
989546375,-3629.780704
989547141,26682.997
989548141,8348.068056
989549141,-5894.358425
989550141,-16184.9469
989551141,-29139.58334
989552141,-44796.84373
989553141,-50321.3787
989554141,-36499.8208
989555141,-14768.77792
989556141,-1987.079448
989557883,-56910.90845
989558883,-83275.02922
989559883,-69558.8948
989560883,-40665.24238
989561883,-16168.82936
989562883,6114.382739
989563883,24299.39745
989564883,25872.34288
989565883,13239.82743
989566883,2799.347083
989567649,-29117.59724
989568649,-12300.5904
989569649,3523.984891
989570649,16745.64599
989571649,31041.1854
989572649,44715.25194
989573649,46875.27362
989574649,32202.12018
989575649,12474.92161
989576649,1550.073204
989577414,32212.52533
989578414,45236.4071
989579414,31134.18026
989580414,10634.76919
989581414,1880.853826
989582414,2469.927953
989583414,2590.02027
989584414,556.121364
989585414,-535.383957
989586414,-372.628095
989587180,56997.15925
989588180,42338.37106
989589180,17888.13397
989590180,-8046.968353
989591180,-35988.24527
989592180,-64496.97435
989593180,-75924.99507
989594180,-56401.32837
989595180,-23296.30214
989596180,-3377.892793
989597922,-75278.06241
989598922,-104552.3344
989599922,-79580.00269
989600922,-31450.37931
989601922,5488.515932
989602922,24845.94072
989603922,31085.84705
989604922,24353.99591
989605922,10925.53111
989606922,2096.09792
989607688,-4829.191949
989608688,-23167.57569
989609688,-30431.60747
989610688,-31159.15225
989611688,-28572.17848
989612688,-19627.1878
989613688,-6000.454771
989614688,2892.399847
989615688,3371.419061
989616688,1150.308381
989617454,-2179.884829
989618454,6639.775429
989619454,17470.48622
989620454,24368.42207
989621454,20473.4453
989622454,5006.218155
989623454,-10987.31099
989624454,-14610.56936
989625454,-7730.638471
989626454,-1610.369963
989627219,-25626.95291
989628219,-39497.18778
989629219,-37424.57057
989630219,-23513.643
989631219,-4763.817368
989632219,13524.17109
989633219,23579.15864
989634219,19841.43644
989635219,8857.159748
989636219,1603.816038
989637961,13274.22298
989638961,8813.85887
989639961,981.28313
989640961,-9587.486464
989641961,-19161.1089
989642961,-21713.14652
989643961,-15570.5606
989644961,-6659.530241
989645961,-1308.20082
989646961,153.530628
989647727,4692.00588
989648727,4719.391863
989649727,4480.937514
989650727,793.945138
989651727,-6377.496352
989652727,-11998.50529
989653727,-11434.71559
989654727,-6344.741593
989655727,-1869.348884
989656727,-119.724015
989657493,-4502.225115
989658493,24417.11998
989659493,47528.81764
989660493,60305.64136
989661493,56168.50811
989662493,30717.52665
989663493,-1664.4779
989664493,-16479.47513
989665493,-11034.46999
989666493,-2842.063052
989667258,29666.47902
989668258,-3171.800162
989669258,-28705.62372
989670258,-45355.28836
989671258,-57160.34319
989672258,-61870.59893
989673258,-52446.07622
989674258,-30758.81541
989675258,-10344.27269
989676258,-741.655152
989678000,-66618.72837
989679000,-72696.31829
989680000,-43243.49848
989681000,-4274.3842
989682000,23003.80678
989683000,36536.60386
989684000,37746.04073
989685000,26400.72166
989686000,10749.3899
989687000,1657.129837
989687766,3335.883881
989688766,10791.39441
989689766,14970.66766
989690766,16700.0142
989691766,14616.31313
989692766,6635.135796
989693766,-3094.753531
989694766,-6809.579682
989695766,-4078.738633
989696766,-960.995689
989697532,5563.643657
989698532,-6356.912643
989699532,-14107.14429
989700532,-17360.94774
989701532,-18106.23101
989702532,-16354.72679
989703532,-11425.96195
989704532,-5348.462666
989705532,-1289.719951
989706532,112.362021
989707297,-32478.46888
989708297,-27422.83705
989709297,-12070.0296
989710297,7811.316181
989711297,25995.31464
989712297,36556.87063
989713297,34355.87356
989714297,21293.81667
989715297,7588.369926
989716297,839.270778
989727805,-47724.73223
989728805,-65161.72214
989729805,-57332.42329
989730805,-35037.15371
989731805,-6890.527835
989732805,24006.98958
989733805,44092.94078
989734805,38647.90387
989735805,17664.29283
989736805,3193.042785
989737571,48347.55627
989738571,43346.39358
989739571,27359.01892
989740571,6921.226413
989741571,-18561.20008
989742571,-47924.91376
989743571,-63657.20151
989744571,-50046.26145
989745571,-21426.65948
989746571,-3349.647503
989747336,-54585.28631
989748336,-84813.08823
989749336,-76840.52864
989750336,-50363.49712
989751336,-22125.74174
989752336,7219.052916
989753336,30066.06873
989754336,31210.06583
989755336,15623.64254
989756336,3233.781422
989757102,-1110.312322
989758102,8298.48914
989759102,12693.17595
989760102,11796.01127
989761102,9045.789799
989762102,6981.123773
989763102,5387.635201
989764102,3301.386214
989765102,1181.239517
989766102,55.930193
989767844,18084.69012
989768844,33499.56008
989769844,38820.1175
989770844,36510.59804
989771844,24742.31989
989772844,1134.346822
989773844,-21679.91589
989774844,-25400.86024
989775844,-13096.53294
989776844,-2684.208937
989777610,-6415.877515
989778610,-27186.15243
989779610,-31213.84141
989780610,-24504.13367
989781610,-18417.56285
989782610,-16044.21795
989783610,-13247.59637
989784610,-7841.515536
989785610,-2564.415563
989786610,-50.941693
989787375,-36531.22248
989788375,-50960.04504
989789375,-42167.43527
989790375,-21641.47588
989791375,-1383.297578
989792375,14962.12473
989793375,23315.7949
989794375,19307.05491
989795375,8643.839815
989796375,1583.862188
989797141,-10974.0567
989798141,-9988.045801
989799141,-3676.59223
989800141,6815.070084
989801141,15678.18009
989802141,16598.13174
989803141,9884.470595
989804141,2637.747125
989805141,-265.306875
989806141,-345.447189
989807883,-16243.91146
989808883,-38972.25188
989809883,-54281.20938
989810883,-55444.51296
989811883,-35090.38909
989812883,3285.989773
989813883,34877.54469
989814883,36550.42553
989815883,17755.70239
989816883,3471.972122
989817649,48193.44594
989818649,45635.95466
989819649,32784.32711
989820649,14346.24273
989821649,-12641.28115
989822649,-47292.42866
989823649,-68215.34813
989824649,-55407.79279
989825649,-24142.16128
989826649,-3888.468586
989827414,-60802.59987
989828414,-78544.47667
989829414,-57125.06824
989830414,-21594.46964
989831414,5306.425511
989832414,21297.65447
989833414,27789.57715
989834414,22154.51401
989835414,9903.00673
989836414,1829.156197
989837180,-13755.39701
989838180,-17625.22696
989839180,-17479.01882
989840180,-12761.41732
989841180,-2280.75926
989842180,12226.22149
989843180,21819.47669
989844180,18775.3036
989845180,8419.076057
989846180,1447.973736
989862571,-15614.49228
989863571,-7128.245518
989864571,5826.709647
989865571,17282.20299
989866571,22249.35586
989867571,20425.81839
989868571,14477.18214
989869571,7508.098359
989870571,2327.543711
989871571,91.17178
989872336,9410.059609
989873336,23687.52833
989874336,32825.45908
989875336,39118.55489
989876336,35719.17799
989877336,13968.96824
989878336,-13911.06851
989879336,-23487.3997
989880336,-13435.61517
989881336,-2969.720407
989882102,5834.42961
989883102,-38795.33728
989884102,-64996.31887
989885102,-74704.27703
989886102,-71712.2945
989887102,-52882.46288
989888102,-23743.96172
989889102,-2241.543468
989890102,3440.771172
989891102,1879.079649
989891868,-27935.70251
989892868,-35371.40273
989893868,-24149.50968
989894868,-10688.28234
989895868,-4491.515898
989896868,-373.268082
989897868,5217.117979
989898868,7285.578321
989899868,4204.43775
989900868,973.572575
989902610,-3675.585563
989903610,-1354.333488
989904610,-1309.738093
989905610,-4607.01311
989906610,-5953.325633
989907610,-40.412882
989908610,8669.557389
989909610,10623.73652
989910610,5579.219597
989911610,1081.52167
989912375,26120.09328
989913375,40033.64327
989914375,37940.12494
989915375,27534.67133
989916375,13555.09408
989917375,-5069.339521
989918375,-21022.35299
989919375,-21947.12929
989920375,-10947.25253
989921375,-2185.583645
989922141,7653.574632
989923141,-11365.16182
989924141,-20396.89694
989925141,-22499.45374
989926141,-24967.51436
989927141,-28504.31368
989928141,-26976.29083
989929141,-17569.43768
989930141,-6502.818309
989931141,-637.770787
989931907,-49175.372
989932907,-71459.73013
989933907,-65849.71002
989934907,-46274.9486
989935907,-20375.77141
989936907,13303.53831
989937907,40665.30873
989938907,40421.28413
989939907,19673.68253
989940907,3822.911145
989942649,34416.75164
989943649,45359.10681
989944649,35370.89661
989945649,9966.695457
989946649,-16204.95081
989947649,-29971.67021
989948649,-27289.5418
989949649,-15303.41763
989950649,-4912.200534
989951649,-536.947353
989952414,17936.48779
989953414,35002.08914
989954414,44941.70353
989955414,45958.93627
989956414,31240.05574
989957414,-1787.689792
989958414,-33122.74539
989959414,-36933.73835
989960414,-18634.46087
989961414,-3696.478631
989962180,-9394.24645
989963180,-43579.19728
989964180,-52749.03573
989965180,-46949.24026
989966180,-40046.57952
989967180,-32540.18157
989968180,-20644.08187
989969180,-8222.524644
989970180,-1222.363937
989971180,605.994639
989971946,-51804.92008
989972946,-59292.11531
989973946,-42258.98864
989974946,-17884.32423
989975946,4290.268142
989976946,25947.27541
989977946,39843.80471
989978946,33888.00356
989979946,15380.17961
989980946,2698.164135
989982688,28041.45975
989983688,39594.07146
989984688,34199.80639
989985688,20380.40664
989986688,5347.454243
989987688,-9886.761116
989988688,-20323.77604
989989688,-18620.07191
989990688,-8779.380427
989991688,-1666.857046
989992454,-5965.118261
989993454,-7801.464448
989994454,-6963.678412
989995454,-5075.834771
989996454,-2320.119159
989997454,1898.6032
989998454,5497.882705
989999454,5418.19672
990000454,2612.27693
990001454,494.421477
990002219,20817.71488
990003219,11838.13205
990004219,1550.824626
990005219,-7704.422822
990006219,-17506.75349
990007219,-27565.55587
990008219,-30842.87815
990009219,-22282.69852
990010219,-9006.145023
990011219,-1231.561978
990011985,-31436.24396
990012985,-33366.9416
990013985,-18325.36527
990014985,1564.776633
990015985,15025.40764
990016985,19310.73001
990017985,16277.86039
990018985,9387.397082
990019985,3226.590359
990020985,373.027514
990022727,27470.2987
990023727,7841.029548
990024727,-7784.978554
990025727,-19471.78769
990026727,-33108.21818
990027727,-47561.82627
990028727,-50520.68645
990029727,-35147.25535
990030727,-13748.44368
990031727,-1723.220258
990032493,-68349.54124
990033493,-78688.7979
990034493,-54047.28743
990035493,-16613.44677
990036493,15656.94798
990037493,39480.37613
990038493,48952.1715
990039493,37402.07522
990040493,15955.7704
990041493,2620.433288
990042258,25097.79067
990043258,22180.52325
990044258,12520.60331
990045258,1739.482873
990046258,-9345.121674
990047258,-21731.86916
990048258,-28840.54833
990049258,-23021.46342
990050258,-10004.10527
990051258,-1589.670135
990052024,-14463.13371
990053024,-31682.10371
990054024,-32893.88066
990055024,-27039.62055
990056024,-21179.31714
990057024,-12943.77205
990058024,-2238.782785
990059024,4024.079518
990060024,3403.925818
990061024,1054.743775
990061789,-14788.07716
990062789,-5707.001171
990063789,9349.935744
990064789,22222.06599
990065789,25056.67928
990066789,16475.18567
990067789,3899.598487
990068789,-3011.731059
990069789,-2773.629242
990070789,-830.334389
990072532,11759.59474
990073532,2332.925002
990074532,-3066.812636
990075532,-6342.859534
990076532,-12905.76976
990077532,-22847.69109
990078532,-27610.23221
990079532,-20732.11373
990080532,-8555.440118
990081532,-1198.751347
990082297,-28170.86795
990083297,-45220.1071
990084297,-40933.26529
990085297,-27341.29651
990086297,-14199.57041
990087297,-643.193175
990088297,11181.11606
990089297,13437.06931
990090297,7152.558046
990091297,1588.248859
990092063,-6736.607085
990093063,1140.909586
990094063,11515.35087
990095063,20285.44112
990096063,21546.982
990097063,12435.35546
990098063,-544.573402
990099063,-6639.916208
990100063,-4449.652016
990101063,-1110.955881
990101829,-7470.839801
990102829,-25380.34904
990103829,-35009.50412
990104829,-35506.60407
990105829,-26355.81348
990106829,-8065.300041
990107829,9706.157525
990108829,14483.0871
990109829,7970.711553
990110829,1796.862103
990112571,13139.0448
990113571,11193.58905
990114571,5782.210298
990115571,-695.692852
990116571,-7309.318741
990117571,-13855.00756
990118571,-16889.63573
990119571,-12947.47145
990120571,-5499.384508
990121571,-837.88782
990122336,-7269.154261
990123336,-20942.92957
990124336,-22843.85599
990125336,-18486.80128
990126336,-14508.94215
990127336,-11027.15414
990128336,-6297.685699
990129336,-1914.645917
990130336,76.852588
990131336,327.616631
990132102,-17411.43376
990133102,-26106.05931
990134102,-23493.57397
990135102,-15276.44613
990136102,-6066.099618
990137102,3672.41802
990138102,10824.59966
990139102,10591.03552
990140102,5137.166356
990141102,1024.387521
990141868,14166.49142
990142868,10670.8033
990143868,5794.268446
990144868,76.472892
990145868,-8031.817177
990146868,-18042.05846
990147868,-23289.99803
990148868,-18105.86289
990149868,-7690.837181
990150868,-1169.017904
990152610,-19708.05529
990153610,-34485.17583
990154610,-31880.46197
990155610,-20758.72833
990156610,-10526.08278
990157610,-2108.366873
990158610,4553.855807
990159610,6313.962542
990160610,3566.421785
990161610,883.632386
990162375,-8639.829551
990163375,-10994.60602
990164375,-7774.576915
990165375,-2226.701907
990166375,2090.269913
990167375,3957.649068
990168375,3682.211742
990169375,2205.481883
990170375,784.952039
990171375,116.191124
990172141,6298.379319
990173141,-790.224575
990174141,-5367.654154
990175141,-7773.533354
990176141,-10357.54874
990177141,-13297.28684
990178141,-13526.49122
990179141,-9253.730491
990180141,-3580.349206
990181141,-421.314372
990181907,-8765.999745
990182907,-19503.04224
990183907,-19164.86147
990184907,-13389.64213
990185907,-8926.066512
990186907,-6550.902771
990187907,-4214.861095
990188907,-1756.094932
990189907,-262.5441
990190907,163.7107
990192649,-8994.04902
990193649,-18243.71154
990194649,-17629.86104
990195649,-12318.87052
990196649,-7919.963708
990197649,-4819.405103
990198649,-1860.798919
990199649,162.931787
990200649,570.141379
990201649,284.20223
990202414,-6021.531228
990203414,-12708.42893
990204414,-12475.64279
990205414,-8790.204194
990206414,-5653.416876
990207414,-3589.963932
990208414,-1759.839286
990209414,-373.54706
990210414,147.446312
990211414,152.795717
990212180,-8906.561722
990213180,-15645.3923
990214180,-15922.81634
990215180,-12180.5313
990216180,-6577.214933
990217180,569.397303
990218180,6458.865942
990219180,7045.621198
990220180,3556.928446
990221180,738.587883
990221946,10087.48523
990222946,8163.929855
990223946,5468.166692
990224946,2206.591626
990225946,-3487.442853
990226946,-11811.26261
990227946,-17207.29778
990228946,-14153.86249
990229946,-6223.300343
990230946,-1000.347045
990232688,-11531.23097
990233688,-25037.9908
990234688,-25508.82262
990235688,-19797.54338
990236688,-14427.41198
990237688,-8647.207717
990238688,-1861.73489
990239688,2180.669005
990240688,2007.37418
990241688,669.50345
990242454,-6618.103187
990243454,-13240.46062
990244454,-11933.41994
990245454,-7240.700409
990246454,-4377.486494
990247454,-3956.851768
990248454,-3720.792666
990249454,-2421.589418
990250454,-849.853052
990251454,-29.972229
990252219,-5462.494295
990253219,-14056.63598
990254219,-14501.15346
990255219,-10941.01158
990256219,-8256.862699
990257219,-6740.363589
990258219,-4684.413009
990259219,-2174.535604
990260219,-474.845459
990261219,102.725511
990261985,-8775.13121
990262985,-15689.50371
990263985,-13861.44947
990264985,-8214.902977
990265985,-4193.117616
990266985,-2346.937547
990267985,-1041.272532
990268985,-30.711013
990269985,269.987878
990270985,168.579308
990272727,-3263.140258
990273727,-10021.70058
990274727,-10549.29553
990275727,-8146.119224
990276727,-6761.98114
990277727,-6537.551357
990278727,-5516.083768
990279727,-3215.190788
990280727,-1034.894242
990281727,-26.944076
990282493,-4979.660147
990283493,-12201.9117
990284493,-12275.82512
990285493,-8839.083034
990286493,-6333.192944
990287493,-5224.718787
990288493,-3898.973853
990289493,-2020.534548
990290493,-541.520746
990291493,51.202479
990292258,-6937.971834
990293258,-13731.17059
990294258,-13161.9335
990295258,-9180.230179
990296258,-5870.823896
990297258,-3568.310679
990298258,-1505.929773
990299258,-102.841343
990300258,277.502167
990301258,178.920448
990302024,-3511.197546
990303024,-10191.6703
990304024,-10181.1785
990305024,-7118.517645
990306024,-5692.545795
990307024,-6232.593531
990308024,-6039.357918
990309024,-3898.823748
990310024,-1379.118092
990311024,-94.459877
990311789,-6475.470529
990312789,-14755.50511
990313789,-14695.14777
990314789,-10242.47885
990315789,-6562.848244
990316789,-4504.00934
990317789,-2680.451491
990318789,-971.003161
990319789,-54.625966
990320789,144.380526
990322532,-6096.219413
990323532,-12886.21328
990324532,-12491.08803
990325532,-8618.601607
990326532,-5552.963613
990327532,-3674.390076
990328532,-1863.673637
990329532,-378.891082
990330532,179.334098
990331532,164.033269
990332297,-4389.506978
990333297,-9783.181694
990334297,-9336.663945
990335297,-6302.200109
990336297,-4397.66998
990337297,-3884.310361
990338297,-3179.78745
990339297,-1792.785357
990340297,-536.458012
990341297,15.797078
990342063,-2662.84172
990343063,-9175.345567
990344063,-9799.414971
990345063,-7398.430624
990346063,-5990.447331
990347063,-6115.139865
990348063,-5677.479496
990349063,-3632.08055
990350063,-1289.983727
990351063,-86.40067
990351829,-7969.275398
990352829,-15133.22303
990353829,-14226.51904
990354829,-9492.339856
990355829,-5515.311763
990356829,-2618.951129
990357829,-100.309723
990358829,1159.321429
990359829,883.111128
990360829,287.878866
990362571,-1771.314428
990363571,-7392.545151
990364571,-8016.114375
990365571,-6116.687261
990366571,-5233.818917
990367571,-5813.532147
990368571,-5755.605102
990369571,-3865.740958
990370571,-1444.55749
990371571,-130.935955
990372336,-5288.151141
990373336,-13549.64217
990374336,-13905.94517
990375336,-10444.47714
990376336,-7925.534532
990377336,-6512.057529
990378336,-4477.708566
990379336,-2009.595693
990380336,-401.104904
990381336,110.913163
990382102,-8725.85609
990383102,-14869.72422
990384102,-13361.76341
990385102,-8667.717493
990386102,-4852.693534
990387102,-1722.88412
990388102,1154.45127
990389102,2260.865592
990390102,1392.536874
990391102,368.152862
990391868,695.26736
990392868,-2755.719079
990393868,-2867.144699
990394868,-1603.056847
990395868,-2288.06639
990396868,-5460.281101
990397868,-7819.926907
990398868,-6388.401357
990399868,-2768.737662
990400868,-412.825891
990402610,-8879.880758
990403610,-17923.57916
990404610,-18069.33744
990405610,-13299.50171
990406610,-8141.023006
990407610,-3099.947498
990408610,1386.144176
990409610,3052.657749
990410610,1886.813867
990411610,504.115797
990412375,-3863.260213
990413375,-6822.556284
990414375,-5848.771573
990415375,-3636.893518
990416375,-2476.190458
990417375,-2009.074531
990418375,-1261.938345
990419375,-417.475954
990420375,4.461434
990421375,68.465169
990422141,1008.124379
990423141,-2585.01383
990424141,-3003.779579
990425141,-2422.197256
990426141,-3742.051616
990427141,-6833.214562
990428141,-8442.884449
990429141,-6365.220546
990430141,-2616.832758
990431141,-356.623451
990431907,-7260.965648
990432907,-14769.81338
990433907,-14557.06152
990434907,-10820.73387
990435907,-7519.694672
990436907,-4429.140523
990437907,-1070.476697
990438907,932.392323
990439907,923.79673
990440907,328.850176
990442649,-4481.210788
990443649,-8414.339904
990444649,-6912.605315
990445649,-3437.609957
990446649,-1899.425848
990447649,-2578.835851
990448649,-3218.331988
990449649,-2412.288571
990450649,-951.284809
990451649,-94.998635
990452414,-4124.38036
990453414,-10032.28253
990454414,-10381.80104
990455414,-8295.935484
990456414,-6672.000717
990457414,-5125.200993
990458414,-2848.519375
990459414,-795.85964
990460414,75.614394
990461414,156.885534
990462180,-3652.757371
990463180,-8590.604068
990464180,-8432.843656
990465180,-5945.837718
990466180,-4318.21684
990467180,-3735.952342
990468180,-2894.525687
990469180,-1536.267593
990470180,-424.809185
990471180,29.06068
990476829,-3914.055091
990477829,-9850.588449
990478829,-10145.70364
990479829,-7179.27065
990480829,-4585.147923
990481829,-3282.074975
990482829,-2272.175208
990483829,-1115.953766
990484829,-260.223145
990485829,59.790625
990486594,-3613.117213
990487594,-8386.029815
990488594,-8272.982559
990489594,-6260.557529
990490594,-5098.139076
990491594,-4382.420468
990492594,-2963.843178
990493594,-1257.522439
990494594,-220.408787
990495594,78.44229
990496360,-4718.37164
990497360,-9463.953758
990498360,-9234.167913
990499360,-6574.028831
990500360,-4218.997739
990501360,-2397.333508
990502360,-700.962224
990503360,327.986634
990504360,408.185306
990505360,167.247053
990506125,-650.374437
990507125,-4417.903877
990508125,-4446.471348
990509125,-2893.41446
990510125,-2892.430597
990511125,-4657.411126
990512125,-5650.216473
990513125,-4203.634885
990514125,-1695.283332
990515125,-212.616882
990516868,-7061.258644
990517868,-13360.26965
990518868,-13117.00263
990519868,-9552.234585
990520868,-5812.017508
990521868,-1972.353952
990522868,1514.454632
990523868,2682.928962
990524868,1584.156588
990525868,401.250982
990526633,971.750813
990527633,-1634.201043
990528633,-1738.508894
990529633,-1150.859411
990530633,-2374.937202
990531633,-5413.674369
990532633,-7315.492823
990533633,-5778.219019
990534633,-2454.569171
990535633,-358.720841
990536399,-4933.363636
990537399,-12642.53884
990538399,-13510.08014
990539399,-10573.49528
990540399,-7650.944187
990541399,-5210.565895
990542399,-2601.199525
990543399,-550.209959
990544399,205.270371
990545399,198.389411
990546164,-5810.473091
990547164,-10071.17288
990548164,-8572.559055
990549164,-4913.933581
990550164,-2683.115865
990551164,-1901.92657
990552164,-1196.489064
990553164,-393.934678
990554164,26.31859
990555164,86.564144
990556907,-2099.280825
990557907,-7360.015134
990558907,-8232.969203
990559907,-6579.28558
990560907,-5153.081476
990561907,-4468.25052
990562907,-3528.025114
990563907,-1998.878346
990564907,-628.222742
990565907,-1.536651
990566672,-4999.23534
990567672,-9954.569944
990568672,-9272.829166
990569672,-5960.499632
990570672,-3518.208583
990571672,-2402.159557
990572672,-1544.736596
990573672,-658.135753
990574672,-98.238729
990575672,70.622057
990576438,-3552.840966
990577438,-8808.176545
990578438,-8906.823262
990579438,-6680.50446
990580438,-5199.230374
990581438,-4314.974483
990582438,-2832.72578
990583438,-1118.641839
990584438,-139.408074
990585438,98.245431
990586204,-3983.779731
990587204,-8265.655955
990588204,-7792.862951
990589204,-5151.304416
990590204,-3328.044956
990591204,-2417.838913
990592204,-1362.733542
990593204,-317.54041
990594204,116.153248
990595204,110.364945
990596946,-665.576786
990597946,-3438.914393
990598946,-3206.896437
990599946,-1742.308393
990600946,-1698.845792
990601946,-3569.044436
990602946,-5085.455681
990603946,-4159.483138
990604946,-1795.855508
990605946,-259.439677
990606711,-4740.537263
990607711,-10946.8205
990608711,-10989.70104
990609711,-7975.538751
990610711,-5568.280434
990611711,-3951.451571
990612711,-2097.001719
990613711,-472.502802
990614711,162.647974
990615711,159.692872
990616477,-5519.080455
990617477,-8200.82313
990618477,-6451.636067
990619477,-3059.584362
990620477,-721.856896
990621477,227.808025
990622477,478.422761
990623477,405.880435
990624477,205.443759
990625477,67.288489
990626243,1111.58241
990627243,-3585.845023
990628243,-4961.507321
990629243,-4733.751436
990630243,-5519.512973
990631243,-7206.760222
990632243,-7400.474767
990633243,-5002.953107
990634243,-1892.554638
990635243,-204.534355
990636985,-8805.884559
990637985,-13470.41035
990638985,-11504.16052
990639985,-6677.914913
990640985,-2481.209787
990641985,742.824039
990642985,2867.640003
990643985,2914.289007
990644985,1460.933945
990645985,322.245297
990646750,1028.244083
990647750,-2800.774359
990648750,-3904.116119
990649750,-3356.00143
990650750,-3594.077767
990651750,-5256.934561
990652750,-6278.393778
990653750,-4780.961156
990654750,-1990.421775
990655750,-267.252125
990656516,-4551.395995
990657516,-12092.43429
990658516,-12516.64978
990659516,-9234.614758
990660516,-6736.495584
990661516,-5561.364613
990662516,-4075.579163
990663516,-2032.415069
990664516,-503.326229
990665516,68.008147
990666282,-7957.355611
990667282,-13667.79556
990668282,-12184.09555
990669282,-7823.216519
990670282,-4539.699367
990671282,-2041.389632
990672282,432.192385
990673282,1622.762669
990674282,1105.334711
990675282,315.449249
990676047,-2136.237443
990677047,-5141.335256
990678047,-4676.755191
990679047,-2980.078559
990680047,-2452.482985
990681047,-3002.384386
990682047,-3092.252549
990683047,-2071.858342
990684047,-763.440363
990685047,-66.197663
990686789,-3256.024449
990687789,-8798.263675
990688789,-9271.038513
990689789,-7133.919286
990690789,-5394.73478
990691789,-4300.620996
990692789,-2898.553827
990693789,-1303.02966
990694789,-267.647916
990695789,71.132673
990696555,-4164.63908
990697555,-9186.036093
990698555,-8859.127849
990699555,-6291.78817
990700555,-4655.893926
990701555,-3805.294395
990702555,-2517.477482
990703555,-1017.428366
990704555,-138.128107
990705555,88.411421
990706321,-3998.263121
990707321,-7815.086224
990708321,-6968.256721
990709321,-4242.821378
990710321,-2654.183326
990711321,-2357.794943
990712321,-2028.285339
990713321,-1184.608076
990714321,-363.396618
990715321,9.750687
990716086,-2751.711211
990717086,-8284.651545
990718086,-8701.630388
990719086,-6608.224054
990720086,-5302.707491
990721086,-4938.207006
990722086,-3978.222034
990723086,-2177.996109
990724086,-637.337675
990725086,12.606489
990726829,-5004.782976
990727829,-9989.158855
990728829,-9504.503168
990729829,-6552.538298
990730829,-4271.887602
990731829,-2732.570449
990732829,-1149.316826
990733829,19.555052
990734829,296.140451
990735829,154.986622
990736594,-1410.430153
990737594,-5544.897422
990738594,-5563.068252
990739594,-3747.392403
990740594,-3294.047049
990741594,-4558.004597
990742594,-5263.379523
990743594,-3855.878567
990744594,-1538.163278
990745594,-180.514605
990746360,-4691.438382
990747360,-11047.87178
990748360,-11105.26727
990749360,-7981.765751
990750360,-5503.373132
990751360,-4169.903626
990752360,-2816.763268
990753360,-1294.863761
990754360,-271.111915
990755360,77.553985
990756125,-5528.660335
990757125,-11037.19709
990758125,-10209.38937
990759125,-6576.360219
990760125,-4105.213789
990761125,-3015.803236
990762125,-1897.1949
990763125,-674.71037
990764125,-14.687413
990765125,107.121857
990766868,-3376.693789
990767868,-8080.104699
990768868,-7939.014824
990769868,-5419.546428
990770868,-3708.663158
990771868,-3181.666523
990772868,-2538.589522
990773868,-1377.524701
990774868,-382.971798
990775868,26.613973
990776633,-3837.209186
990777633,-7145.71037
990778633,-5767.881895
990779633,-2420.662665
990780633,-738.574686
990781633,-1343.009346
990782633,-2232.575725
990783633,-1873.618658
990784633,-782.46237
990785633,-89.501181
990786399,-1106.322632
990787399,-8031.565992
990788399,-9761.861276
990789399,-8507.481925
990790399,-7623.392437
990791399,-7507.156073
990792399,-6450.469534
990793399,-3891.856817
990794399,-1323.089918
990795399,-71.626855
990796164,-9573.058233
990797164,-15772.71065
990798164,-13767.95334
990799164,-8457.797879
990800164,-4326.487323
990801164,-1301.609972
990802164,1238.125732
990803164,2122.153996
990804164,1275.011583
990805164,338.588603
990806907,213.926843
990807907,-4764.650323
990808907,-5890.128719
990809907,-4967.82561
990810907,-5028.400051
990811907,-6423.407736
990812907,-6831.226333
990813907,-4790.586517
990814907,-1866.052805
990815907,-210.434609
990816672,-6961.292163
990817672,-14226.56622
990818672,-13726.6635
990819672,-9571.15398
990820672,-6206.088219
990821672,-3907.383627
990822672,-1679.214902
990823672,-67.022584
990824672,355.830785
990825672,206.690957
990826438,-5648.898704
990827438,-11184.59865
990828438,-10453.23547
990829438,-6787.546885
990830438,-4045.288415
990831438,-2636.135016
990832438,-1424.131807
990833438,-357.949838
990834438,100.512043
990835438,121.831866
990836204,-2889.872879
990837204,-8044.703387
990838204,-7895.93189
990839204,-5161.098607
990840204,-3702.619948
990841204,-4090.837378
990842204,-4232.418013
990843204,-2885.738728
990844204,-1067.431177
990845204,-86.21563
990846946,-6112.653705
990847946,-11734.05245
990848946,-10787.68209
990849946,-7313.957007
990850946,-5050.546675
990851946,-3634.847863
990852946,-1822.116205
990853946,-253.749338
990854946,258.59031
990855946,172.286256
990856711,-2316.711769
990857711,-7497.706835
990858711,-7741.22484
990859711,-5909.785033
990860711,-5292.122792
990861711,-5761.306252
990862711,-5258.798506
990863711,-3216.173612
990864711,-1086.275979
990865711,-61.068159
990866477,-6053.835875
990867477,-11999.09945
990868477,-11207.58361
990869477,-7502.760578
990870477,-4880.535062
990871477,-3326.332178
990872477,-1614.868874
990873477,-186.010824
990874477,264.763436
990875477,169.981571
990876243,-2092.732294
990877243,-6593.482576
990878243,-6318.182811
990879243,-4040.640112
990880243,-3423.109034
990881243,-4866.835439
990882243,-5778.639564
990883243,-4308.726134
990884243,-1740.721955
990885243,-209.548031
990886985,-7844.548337
990887985,-15005.61386
990888985,-14622.82021
990889985,-10475.22625
990890985,-6417.069652
990891985,-2706.52695
990892985,617.45321
990893985,1989.057451
990894985,1300.61698
990895985,369.22288
990896750,-6563.274191
990897750,-7564.77494
990898750,-4453.005618
990899750,-570.224443
990900750,1533.274879
990901750,2151.434396
990902750,2159.233761
990903750,1591.724157
990904750,697.087567
990905750,124.153756
990906516,3965.22963
990907516,2451.169893
990908516,1842.83424
990909516,1727.514304
990910516,-297.783272
990911516,-5043.972898
990912516,-8841.166369
990913516,-7732.040511
990914516,-3486.428399
990915516,-576.193051
990916282,-11033.47125
990917282,-17235.37058
990918282,-16322.90142
990919282,-11541.97486
990920282,-5360.0001
990921282,2101.171854
990922282,8034.823139
990923282,8191.363248
990924282,4037.428822
990925282,808.79717
990926047,998.333381
990927047,4280.085624
990928047,6227.272373
990929047,6735.851869
990930047,5476.404252
990931047,2191.842884
990932047,-1365.703092
990933047,-2562.796589
990934047,-1484.313143
990935047,-346.154013
990936789,14689.45782
990937789,12792.09582
990938789,9784.302859
990939789,5462.056558
990940789,-3457.851218
990941789,-16992.38177
990942789,-25891.6782
990943789,-21463.95958
990944789,-9436.715456
990945789,-1527.705244
990946555,-17351.88594
990947555,-29684.85631
990948555,-26058.58566
990949555,-15932.51044
990950555,-8503.808745
990951555,-3903.89526
990952555,-4.635392
990953555,2012.598785
990954555,1527.684436
990955555,501.207743
990956321,-10215.48802
990957321,-14176.95806
990958321,-9825.526853
990959321,-2983.315056
990960321,630.640411
990961321,840.088796
990962321,252.988874
990963321,97.60599
990964321,111.155497
990965321,70.819214
990966086,4578.460424
990967086,2744.684144
990968086,3596.550008
990969086,4481.113372
990970086,567.343704
990971086,-8792.596078
990972086,-16233.09102
990973086,-14366.75072
990974086,-6522.094037
990975086,-1090.500362
990976829,-16383.4715
990977829,-27863.39003
990978829,-25019.71231
990979829,-15939.90041
990980829,-8338.355144
990981829,-2277.108412
990982829,2841.585066
990983829,4479.95908
990984829,2624.179628
990985829,671.853255
990986594,-13954.76008
990987594,-20265.12642
990988594,-20526.17075
990989594,-16752.4932
990990594,-8394.644776
990991594,5355.304744
990992594,17062.81883
990993594,17014.63669
990994594,8248.007582
990995594,1566.939588
990996360,24913.7689
990997360,33623.69437
990998360,30843.15898
990999360,21274.49525
991000360,6846.801734
991001360,-12577.23389
991002360,-27469.72889
991003360,-25592.51209
991004360,-12080.005
991005360,-2225.738699
991006125,-12809.51393
991007125,-37162.93561
991008125,-45255.04398
991009125,-43342.34582
991010125,-35620.12626
991011125,-18851.16414
991012125,1690.926749
991013125,11332.6427
991014125,7638.189964
991015125,2016.769862
991016868,7652.302712
991017868,20235.85598
991018868,23861.55432
991019868,22603.70032
991020868,18733.16526
991021868,10671.77317
991022868,886.252716
991023868,-4046.371426
991024868,-3015.234106
991025868,-871.554031
991026633,11650.15927
991027633,9445.155736
991028633,2964.809798
991029633,-3434.893882
991030633,-7351.319495
991031633,-9097.759304
991032633,-8633.325318
991033633,-5727.290059
991034633,-2210.281755
991035633,-282.067904
991036399,10285.17351
991037399,12050.38693
991038399,16233.26191
991039399,19265.29885
991040399,11647.8835
991041399,-9738.541542
991042399,-29476.01869
991043399,-29162.57438
991044399,-13976.11271
991045399,-2539.906796
991046164,-23119.31685
991047164,-51214.04896
991048164,-54942.71007
991049164,-46608.17599
991050164,-35588.0342
991051164,-18490.84242
991052164,1674.948029
991053164,11240.9093
991054164,7638.533105
991055164,2065.187799
991056907,-30209.87688
991057907,-26514.61978
991058907,-18027.19092
991059907,-7163.499604
991060907,9461.28936
991061907,31137.08387
991062907,43526.15653
991063907,34605.92308
991064907,14816.15449
991065907,2322.217827
991066672,66864.15556
991067672,71356.85206
991068672,53717.73723
991069672,27971.152
991070672,-4417.234081
991071672,-46576.13724
991072672,-76355.89116
991073672,-65972.37786
991074672,-29951.74593
991075672,-5146.607644
991076438,-79352.8415
991077438,-124225.6178
991078438,-117671.4535
991079438,-81837.0151
991080438,-35476.08215
991081438,18331.16554
991082438,59222.4901
991083438,58737.62417
991084438,28598.17197
991085438,5670.338392
991093039,-8986.025801
991094039,-41979.82226
991095039,-57869.35169
991096039,-61342.2345
991097039,-54238.89141
991098039,-32673.87624
991099039,-5002.580836
991100039,9777.193061
991101039,7869.74656
991102039,2338.913791
991102805,-40040.12129
991103805,-21344.68914
991104805,5091.552118
991105805,29457.27792
991106805,45860.07001
991107805,50738.81275
991108805,41751.66828
991109805,23605.74815
991110805,7696.736904
991111805,550.627485
991112571,30021.95672
991113571,28592.97906
991114571,16837.67248
991115571,6050.722969
991116571,-2430.644719
991117571,-14529.80087
991118571,-25366.96149
991119571,-23200.74122
991120571,-10939.49186
991121571,-1940.503669
991122336,-14155.15121
991123336,-41359.74123
991124336,-46982.93
991125336,-37844.24516
991126336,-25864.55924
991127336,-15073.55419
991128336,-5765.287919
991129336,-111.858364
991130336,1193.437659
991131336,702.762939
991133079,-17722.61766
991134079,-44964.96222
991135079,-52787.69274
991136079,-49702.70354
991137079,-40358.40398
991138079,-20844.82028
991139079,2466.603772
991140079,13035.79498
991141079,8637.81734
991142079,2270.140566
991142844,-22910.35762
991143844,-3344.592232
991144844,17035.74765
991145844,32282.98208
991146844,39560.05856
991147844,36884.74778
991148844,25220.11751
991149844,11397.17878
991150844,2656.255171
991151844,-218.577275
991152610,52703.76693
991153610,39613.00073
991154610,14893.86114
991155610,-11608.19466
991156610,-36609.30462
991157610,-57801.29794
991158610,-63245.42486
991159610,-45073.5584
991160610,-18128.36845
991161610,-2507.835102
991162375,-62300.7254
991163375,-80077.32844
991164375,-65657.85746
991165375,-36807.0662
991166375,-5122.683503
991167375,28194.41841
991168375,49992.65938
991169375,43719.34001
991170375,20017.07777
991171375,3620.986965
991173118,40203.56037
991174118,42831.18361
991175118,30940.25377
991176118,8346.527062
991177118,-19018.41244
991178118,-41110.74501
991179118,-45312.21618
991180118,-30434.85638
991181118,-11469.70021
991182118,-1529.652422
991182883,-4895.856914
991183883,8870.168686
991184883,26020.49733
991185883,37553.76698
991186883,32909.49198
991187883,10582.52749
991188883,-13404.7112
991189883,-19872.78495
991190883,-10826.00866
991191883,-2324.743847
991192649,10711.64458
991193649,-19595.26731
991194649,-35599.53626
991195649,-40531.62712
991196649,-42925.61053
991197649,-42866.52064
991198649,-34828.02381
991199649,-19730.79387
991200649,-6335.187561
991201649,-279.429149
991202414,-41697.88086
991203414,-62820.14729
991204414,-55198.93104
991205414,-37965.72939
991206414,-22272.34862
991207414,-2201.18405
991208414,18630.05762
991209414,23676.93477
991210414,12846.8069
991211414,2803.819778
991213157,2853.05687
991214157,25147.31391
991215157,41225.37386
991216157,50669.22854
991217157,47050.71338
991218157,23193.31326
991219157,-7688.46125
991220157,-20336.52924
991221157,-12490.44674
991222157,-2970.427168
991222922,-13510.73739
991223922,-17221.24241
991224922,-14390.8977
991225922,-5053.662566
991226922,6853.564276
991227922,15362.42181
991228922,16051.08048
991229922,10173.45113
991230922,3648.521453
991231922,462.190092
991232688,40101.94157
991233688,22791.82676
991234688,5473.794703
991235688,-9975.857023
991236688,-30261.83112
991237688,-55447.28524
991238688,-67301.90743
991239688,-50869.85591
991240688,-21192.58618
991241688,-3070.894804
991242454,-83115.21116
991243454,-115724.3812
991244454,-99156.68387
991245454,-58978.34811
991246454,-15389.66027
991247454,29327.1086
991248454,60038.69789
991249454,54849.04318
991250454,25783.56828
991251454,4874.782943
991253196,25632.24766
991254196,35296.51529
991255196,27796.63528
991256196,8379.542054
991257196,-10844.01715
991258196,-19642.82527
991259196,-16096.48748
991260196,-7476.120472
991261196,-1749.628028
991262196,-68.758529
991262961,38354.78487
991263961,60347.29444
991264961,65297.79566
991265961,55404.43326
991266961,28114.22264
991267961,-16209.55659
991268961,-52521.37859
991269961,-51860.49823
991270961,-24935.55412
991271961,-4722.524547
991272727,-34213.56189
991273727,-50980.23573
991274727,-40084.31873
991275727,-16103.08309
991276727,2229.615274
991277727,9190.266942
991278727,8618.267326
991279727,5183.470299
991280727,1989.919463
991281727,424.426937
991282493,-7676.081943
991283493,-32857.10167
991284493,-41968.33979
991285493,-39509.61945
991286493,-32095.77245
991287493,-20355.20745
991288493,-6682.969494
991289493,1722.586521
991290493,2643.653171
991291493,1053.13362
991292258,-20495.56991
991293258,-27962.37296
991294258,-23159.51717
991295258,-14779.26402
991296258,-7202.88904
991297258,2372.64833
991298258,11630.71033
991299258,12785.54408
991300258,6573.221731
991301258,1344.257792
991303000,30256.40508
991304000,59014.09745
991305000,74911.08437
991306000,76782.47056
991307000,53807.52677
991308000,394.899959
991309000,-51592.00757
991310000,-59178.38327
991311000,-30177.80389
991312000,-6057.881409
991312766,-36794.82204
991313766,-82882.57112
991314766,-92547.6388
991315766,-79831.08749
991316766,-56859.04925
991317766,-21878.59544
991318766,13843.22697
991319766,26325.19665
991320766,15554.76536
991321766,3788.71998
991322532,-12258.98663
991323532,-2248.806415
991324532,10885.21457
991325532,18857.48139
991326532,17870.80742
991327532,10688.25903
991328532,3111.732569
991329532,-724.525596
991330532,-1026.891349
991331532,-397.493478
991332297,4244.460498
991333297,9355.281793
991334297,11666.16991
991335297,11535.4799
991336297,8373.350977
991337297,1513.425922
991338297,-5411.786438
991339297,-6945.817282
991340297,-3696.061994
991341297,-783.697109
991343039,-10919.11284
991344039,-21528.16967
991345039,-22352.93428
991346039,-13668.57435
991347039,-1664.107456
991348039,6842.902109
991349039,8593.905626
991350039,5491.965882
991351039,1958.79511
991352039,323.17441
991352805,14503.3964
991353805,-10826.32464
991354805,-27694.83824
991355805,-36934.61648
991356805,-42204.03447
991357805,-41469.62727
991358805,-31500.23032
991359805,-16384.74438
991360805,-4746.308909
991361805,-40.981645
991362571,-55316.38459
991363571,-58453.21901
991364571,-33183.84126
991365571,1597.657196
991366571,27398.33627
991367571,38865.17943
991368571,36445.08913
991369571,23303.35051
991370571,8788.770715
991371571,1175.692603
991372336,-4373.092771
991373336,-11655.5767
991374336,-20582.53367
991375336,-25143.08629
991376336,-17258.83171
991377336,3500.393135
991378336,22315.14186
991379336,23403.8225
991380336,11427.94469
991381336,2167.407728
991383079,60560.52939
991384079,65369.77666
991385079,44890.46042
991386079,10076.17057
991387079,-26172.76381
991388079,-55634.24195
991389079,-65773.58922
991390079,-48701.43602
991391079,-20250.78272
991392079,-3103.862321
991392844,-31150.43125
991393844,-51158.25933
991394844,-42730.83908
991395844,-24098.04335
991396844,-12299.49914
991397844,-6554.990508
991398844,-1263.864924
991399844,2247.329569
991400844,2094.65906
991401844,761.243148
991402610,-29939.09869
991403610,-35158.93146
991404610,-27116.0699
991405610,-15709.33852
991406610,-3863.550884
991407610,12129.01027
991408610,25765.60423
991409610,24481.18263
991410610,11738.1481
991411610,2174.535468
991412375,33551.32153
991413375,50318.56931
991414375,51902.95212
991415375,44322.66334
991416375,25569.60483
991417375,-8466.240188
991418375,-39680.66083
991419375,-41762.89076
991420375,-20728.18907
991421375,-4035.653083
991423118,-36921.3933
991424118,-69498.8812
991425118,-72331.14289
991426118,-52026.24212
991427118,-21990.9514
991428118,7576.212152
991429118,25035.51816
991430118,23152.03993
991431118,10774.34884
991432118,2196.141733
991432883,-13278.30822
991433883,-29593.72646
991434883,-31067.36573
991435883,-22839.96766
991436883,-13048.8004
991437883,-4750.771853
991438883,1106.792749
991439883,3056.392737
991440883,1934.354458
991441883,590.325714
991442649,-31762.44849
991443649,-46484.21217
991444649,-48630.45422
991445649,-41944.78102
991446649,-22874.86526
991447649,12002.2654
991448649,43162.3089
991449649,43997.99474
991450649,21529.41196
991451649,4105.810477
991452414,63587.7137
991453414,92448.00788
991454414,90654.34013
991455414,69294.69959
991456414,31090.28044
991457414,-25302.87071
991458414,-71272.11966
991459414,-69632.28398
991460414,-33512.24546
991461414,-6345.982594
991463157,-58399.409
991464157,-97798.54956
991465157,-96096.55799
991466157,-70271.29
991467157,-35263.67541
991468157,6796.04444
991469157,40376.4044
991470157,42623.57816
991471157,21285.56437
991472157,4373.210202
991472922,7786.595725
991473922,2847.530303
991474922,286.367419
991475922,-1268.064344
991476922,-5804.32166
991477922,-13845.7486
991478922,-18908.99834
991479922,-15102.34862
991480922,-6487.030756
991481922,-983.090905
991482688,-44790.76282
991483688,-44669.79044
991484688,-30029.87077
991485688,-10243.29111
991486688,11874.93958
991487688,36423.32019
991488688,50675.43081
991489688,40927.60865
991490688,17872.99769
991491688,2902.563873
991492454,70784.32166
991493454,77275.10588
991494454,59206.6214
991495454,29823.39023
991496454,-7460.442533
991497454,-52195.11093
991498454,-80811.57028
991499454,-67797.67995
991500454,-30239.9719
991501454,-5109.109018
991503196,-61269.57586
991504196,-102534.2485
991505196,-99954.71514
991506196,-75486.47034
991507196,-44180.59107
991508196,-2222.435896
991509196,36865.01944
991510196,44180.0603
991511196,23299.11317
991512196,4992.564942
991512961,23649.855
991513961,35704.86102
991514961,33571.16466
991515961,20423.73372
991516961,2577.674882
991517961,-14396.23534
991518961,-22986.61223
991519961,-18693.74451
991520961,-8170.023063
991521961,-1437.406047
991522727,-16216.3907
991523727,-14701.15227
991524727,-11196.72206
991525727,-5216.57022
991526727,5649.366317
991527727,19488.53501
991528727,26682.21245
991529727,20708.9747
991530727,8683.037539
991531727,1326.378063
991532493,43512.43327
991533493,29887.0159
991534493,8012.870184
991535493,-12655.35166
991536493,-30731.13719
991537493,-46847.67855
991538493,-51806.44678
991539493,-37563.81611
991540493,-15323.54916
991541493,-2145.729563
991542258,-51266.44628
991543258,-76485.64305
991544258,-67045.38099
991545258,-39868.33484
991546258,-11593.27247
991547258,14081.11217
991548258,30437.51504
991549258,27870.29228
991550258,13153.91708
991551258,2577.215353
991553000,-6080.416597
991554000,-12154.27428
991555000,-12678.32833
991556000,-10192.86958
991557000,-6899.63305
991558000,-2270.584841
991559000,2599.805396
991560000,4243.674943
991561000,2462.782369
991562000,579.191812
991562766,6664.022531
991563766,15610.18281
991564766,21656.34505
991565766,21915.40362
991566766,13510.78614
991567766,-2283.960918
991568766,-15428.59947
991569766,-16017.89286
991570766,-7795.257065
991571766,-1511.866503
991572532,952.96194
991573532,2277.370656
991574532,10079.5295
991575532,17944.60224
991576532,14521.55944
991577532,-3454.859844
991578532,-21717.18973
991579532,-23214.78382
991580532,-11444.77952
991581532,-2137.219324
991582297,-22752.3779
991583297,-51146.74575
991584297,-57378.89421
991585297,-50989.25188
991586297,-38294.94514
991587297,-16296.25156
991588297,7762.793105
991589297,16886.77022
991590297,10211.08332
991591297,2508.555485
991593039,5886.386982
991594039,6897.03688
991595039,7493.567857
991596039,5943.725567
991597039,402.816522
991598039,-8251.825585
991599039,-14174.24938
991600039,-12165.03542
991601039,-5451.953429
991602039,-917.161874
991602805,-9922.020138
991603805,-13251.16912
991604805,-7191.29211
991605805,2205.213172
991606805,6486.461847
991607805,2780.680984
991608805,-3684.987643
991609805,-5775.879214
991610805,-3176.105784
991611805,-614.054382
991617454,-33324.56065
991618454,-43735.39692
991619454,-33464.54549
991620454,-16176.83932
991621454,-2102.277777
991622454,10183.93684
991623454,19212.20878
991624454,17890.66623
991625454,8621.937765
991626454,1659.535569
991627219,7952.565763
991628219,23330.76526
991629219,33582.7602
991630219,36716.55671
991631219,28142.78385
991632219,6290.645711
991633219,-15757.60203
991634219,-20742.79157
991635219,-11024.69299
991636219,-2338.616893
991636985,4368.519997
991637985,-15672.5854
991638985,-23633.01944
991639985,-22848.67222
991640985,-22403.2267
991641985,-24706.11582
991642985,-23865.36488
991643985,-15959.18283
991644985,-6021.933957
991645985,-598.181695
991646750,-26419.84177
991647750,-53312.85431
991648750,-56150.38631
991649750,-46357.82078
991650750,-32500.82024
991651750,-12579.03942
991652750,7936.197648
991653750,15205.93489
991654750,9012.623895
991655750,2208.193075
991657493,1366.313649
991658493,-4200.402149
991659493,-7771.71022
991660493,-12731.08094
991661493,-17373.22446
991662493,-16014.14784
991663493,-8435.888686
991664493,-1418.277749
991665493,825.599352
991666493,492.518642
991667258,-46351.13018
991668258,-20366.19102
991669258,9966.94042
991670258,39042.50501
991671258,62719.53469
991672258,72902.67662
991673258,61936.46617
991674258,35607.66031
991675258,11731.52552
991676258,882.942718
991677024,90804.57854
991678024,71558.69718
991679024,30936.84086
991680024,-10234.07514
991681024,-48397.83626
991682024,-85378.42699
991683024,-101036.7353
991684024,-75887.56375
991685024,-31686.71485
991686024,-4694.134225
991686789,-80719.27716
991687789,-115807.3784
991688789,-93980.14981
991689789,-49799.2077
991690789,-13561.10525
991691789,13884.39077
991692789,32161.09608
991693789,30933.68145
991694789,15203.96347
991695789,3157.369756
991697532,-13073.02012
991698532,-20294.67492
991699532,-18106.77231
991700532,-10921.3982
991701532,-3456.006052
991702532,2715.442434
991703532,6141.814292
991704532,5463.528987
991705532,2525.916813
991706532,511.45598
991707297,-13867.53302
991708297,-20991.77453
991709297,-22135.08218
991710297,-17278.63174
991711297,-6289.612515
991712297,9007.789185
991713297,19852.6748
991714297,18032.92235
991715297,8324.296485
991716297,1508.495232
991717063,15348.40976
991718063,18568.41917
991719063,14538.39892
991720063,8633.258225
991721063,2667.765148
991722063,-5402.182957
991723063,-12523.99739
991724063,-12195.27402
991725063,-5923.211758
991726063,-1116.243839
991726829,-585.806414
991727829,-11273.81636
991728829,-12989.70046
991729829,-9563.715542
991730829,-8467.867953
991731829,-11665.12962
991732829,-13937.24277
991733829,-10616.78752
991734829,-4393.111841
991735829,-564.138843
991737571,-13874.51995
991738571,-31073.23362
991739571,-30030.14187
991740571,-19787.21438
991741571,-12307.54332
991742571,-9673.676287
991743571,-7610.516132
991744571,-4208.953477
991745571,-1193.630328
991746571,100.588404
991747336,-20176.55673
991748336,-33441.87149
991749336,-29779.34367
991750336,-18581.97517
991751336,-8992.926446
991752336,-1394.704231
991753336,4652.778372
991754336,6163.778359
991755336,3443.888912
991756336,839.909494
991757102,-7624.91444
991758102,-11027.82997
991759102,-9512.766159
991760102,-6758.954546
991761102,-4341.224207
991762102,-682.904746
991763102,3421.526204
991764102,4504.300356
991765102,2458.922648
991766102,534.406734
991766868,5144.923861
991767868,6439.632119
991768868,6817.583698
991769868,6798.04632
991770868,4410.781189
991771868,-2094.567982
991772868,-8709.621519
991773868,-9201.410627
991774868,-4574.95679
991775868,-868.726915
991777610,-5503.749403
991778610,-16505.0196
991779610,-18280.17155
991780610,-14511.96909
991781610,-10607.70361
991782610,-7607.214901
991783610,-4461.095298
991784610,-1635.163373
991785610,-155.646225
991786610,191.692555
991787375,-6452.665568
991788375,-17783.4919
991789375,-18258.37002
991790375,-13756.52246
991791375,-11060.92221
991792375,-10073.87691
991793375,-7691.109935
991794375,-3897.227553
991795375,-1003.941211
991796375,86.230717
991797141,-8486.691689
991798141,-19401.48157
991799141,-19083.18888
991800141,-13752.0292
991801141,-10161.1315
991802141,-8234.289828
991803141,-5416.61046
991804141,-2158.661226
991805141,-268.385703
991806141,198.687736
991806907,-12962.54638
991807907,-19333.02361
991808907,-15692.27904
991809907,-7722.998401
991810907,-1416.307018
991811907,2207.386794
991812907,3829.412863
991813907,3324.877717
991814907,1576.885523
991815907,342.839073
991816672,3077.739546
991817672,-4687.869603
991818672,-7933.72868
991819672,-8261.537725
991820672,-9361.932024
991821672,-11726.38068
991822672,-12049.0394
991823672,-8292.133993
991824672,-3201.404222
991825672,-361.45699
991827414,-11600.69987
991828414,-21970.80045
991829414,-20466.25646
991830414,-13429.39342
991831414,-7782.432721
991832414,-3984.920651
991833414,-632.082945
991834414,1262.005697
991835414,1106.133009
991836414,390.813456
991837180,-5708.369282
991838180,-11767.57588
991839180,-10834.76106
991840180,-7172.654051
991841180,-5134.438201
991842180,-4624.302936
991843180,-3648.590447
991844180,-1908.685409
991845180,-504.473322
991846180,45.175384
991846946,-6602.351107
991847946,-11638.42318
991848946,-9719.050327
991849946,-5146.237314
991850946,-2516.261291
991851946,-2186.92085
991852946,-2176.02621
991853946,-1451.91935
991854946,-507.086335
991855946,-7.180585
991856711,-2255.90015
991857711,-11340.0899
991858711,-13247.57971
991859711,-11236.00302
991860711,-9862.300758
991861711,-9393.465721
991862711,-7615.616132
991863711,-4258.717096
991864711,-1308.477749
991865711,-14.237012
991867454,-12515.82066
991868454,-18585.13039
991869454,-14505.7671
991870454,-6696.295155
991871454,-1447.767774
991872454,904.036994
991873454,2040.98985
991874454,2042.594805
991875454,1079.871227
991876454,271.540579
991877219,447.720104
991878219,-7248.421342
991879219,-9331.009953
991880219,-8019.503114
991881219,-7691.24426
991882219,-9204.162533
991883219,-9528.406821
991884219,-6615.490374
991885219,-2556.846737
991886219,-275.990564
991886985,-9724.048709
991887985,-19378.12266
991888985,-18603.14632
991889985,-12889.97234
991890985,-8138.541734
991891985,-4675.286906
991892985,-1387.320005
991893985,664.079139
991894985,824.945868
991895985,335.710197
991896750,-5020.660491
991897750,-12358.22693
991898750,-12124.08887
991899750,-8411.581726
991900750,-6191.701704
991901750,-5828.934898
991902750,-5001.597608
991903750,-2934.151325
991904750,-930.151395
991905750,-9.008061
991907493,-8648.667774
991908493,-16685.09359
991909493,-15779.44021
991910493,-10436.38245
991911493,-5894.555753
991912493,-2754.399681
991913493,-145.937712
991914493,1181.045707
991915493,922.565226
991916493,307.944929
991917258,-2333.226032
991918258,-8042.222821
991919258,-8208.059254
991920258,-6120.722319
991921258,-5613.01429
991922258,-6568.832366
991923258,-6415.940513
991924258,-4166.380058
991925258,-1503.26454
991926258,-124.532987
991927024,-7037.584245
991928024,-13999.02551
991929024,-13029.58719
991930024,-8543.786488
991931024,-5391.862418
991932024,-3835.557373
991933024,-2267.301069
991934024,-713.930991
991935024,45.506699
991936024,147.391319
991936789,-6080.045868
991937789,-12547.73721
991938789,-12211.51871
991939789,-8660.866189
991940789,-5727.708896
991941789,-3531.67921
991942789,-1289.002597
991943789,231.673932
991944789,478.317563
991945789,216.414596
991947532,-2070.08575
991948532,-8122.408082
991949532,-8698.434334
991950532,-6628.337217
991951532,-5759.845332
991952532,-6345.077972
991953532,-6047.121859
991954532,-3872.293668
991955532,-1371.62257
991956532,-100.219223
991957297,-5038.512503
991958297,-12118.49382
991959297,-12235.64286
991960297,-9211.336116
991961297,-7065.109935
991962297,-5730.200789
991963297,-3793.705613
991964297,-1607.654746
991965297,-278.260886
991966297,110.430776
991967063,-5849.167107
991968063,-12361.39033
991969063,-11858.458
991970063,-8043.79032
991971063,-5205.383008
991972063,-3756.581608
991973063,-2359.106903
991974063,-921.046197
991975063,-96.004225
991976063,109.616878
991976829,-4273.265054
991977829,-10435.84151
991978829,-10200.56438
991979829,-7240.18921
991980829,-5602.475401
991981829,-5221.916672
991982829,-4179.627113
991983829,-2239.540443
991984829,-628.681071
991985829,27.859552
991987571,-5297.793743
991988571,-11900.56407
991989571,-11590.87029
991990571,-8074.260811
991991571,-5645.002717
991992571,-4471.679018
991993571,-2963.252101
991994571,-1192.373734
991995571,-145.285007
991996571,115.330778
991997336,-4866.854213
991998336,-9735.748422
991999336,-9110.432855
992000336,-6092.88516
992001336,-3966.885421
992002336,-3006.729121
992003336,-2114.598054
992004336,-1033.307691
992005336,-243.310322
992006336,52.448392
992007102,-3005.400823
992008102,-8526.321678
992009102,-8586.014781
992010102,-6132.483308
992011102,-4876.896166
992012102,-5021.623485
992013102,-4566.253938
992014102,-2796.098435
992015102,-935.525419
992016102,-41.308922
992016868,-5766.983812
992017868,-11605.799
992018868,-10793.81752
992019868,-6897.122094
992020868,-4125.452062
992021868,-3050.327609
992022868,-2226.879227
992023868,-1123.553857
992024868,-265.552081
992025868,59.946556
992027610,-3389.878622
992028610,-9883.301506
992029610,-10664.33272
992030610,-8294.724536
992031610,-6237.992488
992032610,-5048.344733
992033610,-3640.268912
992034610,-1851.244313
992035610,-492.681207
992036610,47.176843
992037375,-5278.227865
992038375,-10660.79267
992039375,-10006.65204
992040375,-6696.317859
992041375,-4364.986154
992042375,-3167.675972
992043375,-1913.468522
992044375,-658.535898
992045375,-11.537645
992046375,106.703638
992047141,-4628.283735
992048141,-9412.428923
992049141,-8731.263313
992050141,-5884.774177
992051141,-4190.489866
992052141,-3367.534042
992053141,-2045.599452
992054141,-593.216912
992055141,76.832321
992056141,126.328268
992056907,-2125.251589
992057907,-5698.757209
992058907,-5297.563753
992059907,-3089.843586
992060907,-2144.201313
992061907,-3009.9441
992062907,-3775.469063
992063907,-2912.961818
992064907,-1198.219112
992065907,-145.262009
992066672,-3345.573494
992067672,-9766.896059
992068672,-10354.04835
992069672,-7911.096211
992070672,-6123.949407
992071672,-5366.268185
992072672,-4147.336585
992073672,-2210.359116
992074672,-623.637546
992075672,29.77257
992077414,-5286.917895
992078414,-10329.44031
992079414,-9600.655728
992080414,-6259.067186
992081414,-3784.783913
992082414,-2534.831908
992083414,-1491.336645
992084414,-523.325845
992085414,-13.068048
992086414,91.579956
992087180,-3472.104285
992088180,-8157.398885
992089180,-8168.014671
992090180,-5933.579153
992091180,-4279.618586
992092180,-3451.576353
992093180,-2458.167685
992094180,-1193.295951
992095180,-282.707112
992096180,48.978947
992096946,-2962.767768
992097946,-7849.518343
992098946,-7685.965722
992099946,-5057.886687
992100946,-3537.858038
992101946,-3656.801643
992102946,-3633.028918
992103946,-2434.651138
992104946,-890.938571
992105946,-64.146488
992106711,-4202.126864
992107711,-10397.69638
992108711,-10691.84207
992109711,-7931.107441
992110711,-5661.730453
992111711,-4220.691214
992112711,-2573.839341
992113711,-938.11714
992114711,-68.601029
992115711,117.023472
992117454,-5346.06639
992118454,-10367.53412
992119454,-9816.930161
992120454,-6756.428772
992121454,-4300.184784
992122454,-2479.073834
992123454,-672.536901
992124454,446.579317
992125454,491.441071
992126454,188.628445
992127219,-1353.246958
992128219,-5427.930592
992129219,-5871.772943
992130219,-4288.852481
992131219,-3334.450487
992132219,-3722.931482
992133219,-4015.229385
992134219,-2933.199491
992135219,-1178.579236
992136219,-130.713081
992136985,-4179.641158
992137985,-9669.093032
992138985,-9552.380841
992139985,-7202.361999
992140985,-5768.223562
992141985,-4753.053465
992142985,-2935.664157
992143985,-1008.619474
992144985,-43.214974
992145985,126.788965
992146750,-5899.632528
992147750,-10085.52446
992148750,-8574.262023
992149750,-4570.060688
992150750,-1799.198933
992151750,-714.158735
992152750,-134.51199
992153750,251.123664
992154750,258.540464
992155750,111.110373
992157493,-124.438229
992158493,-4493.802168
992159493,-5926.350925
992160493,-5966.539422
992161493,-6207.478308
992162493,-6197.266205
992163493,-4881.720023
992164493,-2618.266257
992165493,-777.529391
992166493,-8.40813
992167258,-4465.163111
992168258,-9231.201346
992169258,-8524.146219
992170258,-5175.504795
992171258,-2918.654963
992172258,-2384.903353
992173258,-2077.294984
992174258,-1230.43108
992175258,-368.772317
992176258,19.536389
992177024,-2254.039574
992178024,-8002.854771
992179024,-8884.538792
992180024,-6892.025056
992181024,-5253.886952
992182024,-4728.445731
992183024,-4025.924528
992184024,-2447.393549
992185024,-825.497759
992186024,-29.387286
992186789,-5987.007032
992187789,-11435.72792
992188789,-10920.17683
992189789,-7229.824886
992190789,-3817.745258
992191789,-1434.621754
992192789,235.377494
992193789,891.509183
992194789,607.454404
992195789,195.559791
992197532,-224.518401
992198532,-4861.92516
992199532,-5623.690904
992200532,-4660.423372
992201532,-4939.571114
992202532,-6392.940973
992203532,-6578.555451
992204532,-4411.386148
992205532,-1640.260196
992206532,-164.494178
992207297,-5925.464795
992208297,-11431.01117
992209297,-10522.32374
992210297,-7085.445398
992211297,-4807.674538
992212297,-3456.550774
992213297,-1821.456337
992214297,-370.484269
992215297,171.620892
992216297,149.764013
992217063,-2961.151548
992218063,-8076.232026
992219063,-8060.089267
992220063,-5661.822289
992221063,-4361.076623
992222063,-4460.029873
992223063,-4150.281989
992224063,-2628.966906
992225063,-916.561082
992226063,-52.569679
992226829,-5267.01547
992227829,-11727.94055
992228829,-11907.82095
992229829,-8865.861641
992230829,-6064.501357
992231829,-3728.006998
992232829,-1329.27447
992233829,254.958493
992234829,498.514336
992235829,221.505296
992237571,-3637.823244
992238571,-7682.842351
992239571,-7126.083561
992240571,-4545.097213
992241571,-2934.314561
992242571,-2617.405576
992243571,-2325.686843
992244571,-1446.890751
992245571,-489.736118
992246571,-10.903693
992247336,-2783.904357
992248336,-7629.825206
992249336,-7822.251478
992250336,-6092.498102
992251336,-5199.925636
992252336,-4881.65573
992253336,-3790.672378
992254336,-1991.495358
992255336,-559.943037
992256336,19.743202
992257102,-5399.4503
992258102,-10918.07666
992259102,-10567.77344
992260102,-7354.723932
992261102,-4635.575861
992262102,-2676.224324
992263102,-837.188136
992264102,332.306043
992265102,450.660577
992266102,188.449812
992266868,-1921.751452
992267868,-6066.878994
992268868,-5817.686827
992269868,-3647.230042
992270868,-2968.981699
992271868,-4192.226594
992272868,-4977.361395
992273868,-3695.058714
992274868,-1482.587756
992275868,-174.491153
992277610,-4685.26679
992278610,-11349.33665
992279610,-11584.77647
992280610,-8831.054626
992281610,-6774.414447
992282610,-5210.0711
992283610,-2936.33371
992284610,-778.21175
992285610,133.919822
992286610,181.569279
992287375,-3847.926478
992288375,-7184.833783
992289375,-5959.542909
992290375,-3346.614362
992291375,-2379.995598
992292375,-2900.259183
992293375,-3069.749621
992294375,-2083.14662
992295375,-766.619047
992296375,-60.729838
992297141,-3407.421918
992298141,-9590.174261
992299141,-9971.189772
992300141,-7485.459582
992301141,-5786.28672
992302141,-5184.477508
992303141,-4147.946301
992304141,-2312.006891
992305141,-699.351296
992306141,9.124319
992306907,-5581.682263
992307907,-12090.89767
992308907,-11947.03269
992309907,-8271.163762
992310907,-5090.17071
992311907,-3109.524336
992312907,-1464.884251
992313907,-242.768033
992314907,182.387262
992315907,150.000363
992316672,-4021.349393
992317672,-9115.55525
992318672,-8589.089621
992319672,-5675.959224
992320672,-4075.184872
992321672,-3948.773827
992322672,-3493.869033
992323672,-2089.779341
992324672,-673.970568
992325672,-11.663914
992327414,-4699.04508
992328414,-10491.2032
992329414,-10173.63898
992330414,-7114.875001
992331414,-5039.971067
992332414,-3999.053055
992333414,-2630.312886
992334414,-1059.355691
992335414,-136.765941
992336414,99.028803
992337180,-4550.662441
992338180,-9555.168762
992339180,-9164.598195
992340180,-6772.099543
992341180,-5316.08175
992342180,-4234.671087
992343180,-2437.21123
992344180,-682.945946
992345180,76.957309
992346180,138.668989
992346946,-1769.499378
992347946,-6524.879966
992348946,-6834.793942
992349946,-5112.379557
992350946,-4483.837487
992351946,-5148.473397
992352946,-5125.129265
992353946,-3416.192036
992354946,-1262.639474
992355946,-112.119035
992356711,-4570.037418
992357711,-10939.24368
992358711,-11051.42511
992359711,-8095.211015
992360711,-5816.569468
992361711,-4539.839846
992362711,-3062.096315
992363711,-1380.217332
992364711,-278.965962
992365711,82.541626
992367454,-4965.5094
992368454,-10419.30189
992369454,-9661.266278
992370454,-6436.178348
992371454,-4597.661286
992372454,-4043.458954
992373454,-3077.214172
992374454,-1539.608784
992375454,-376.932809
992376454,51.839371
992377219,-4484.304471
992378219,-10694.78752
992379219,-10674.70618
992380219,-7671.505632
992381219,-5529.759744
992382219,-4480.550475
992383219,-3111.097508
992384219,-1402.534362
992385219,-271.968061
992386219,84.55314
992386985,-4172.340682
992387985,-9148.594025
992388985,-8703.33162
992389985,-5984.398774
992390985,-4356.417398
992391985,-3765.323122
992392985,-2759.008425
992393985,-1297.980795
992394985,-275.608651
992395985,62.519735
992396750,-3008.180159
992397750,-7947.9567
992398750,-7732.491648
992399750,-5465.175778
992400750,-4584.104605
992401750,-5057.201167
992402750,-4816.69759
992403750,-3074.772714
992404750,-1084.851167
992405750,-74.618657
992407493,-4793.5941
992408493,-11777.14948
992409493,-12038.08153
992410493,-8960.216784
992411493,-6546.663081
992412493,-5070.888053
992413493,-3266.646043
992414493,-1332.011556
992415493,-193.824649
992416493,114.698968
992417258,-6025.262256
992418258,-10844.36487
992419258,-9442.710415
992420258,-5565.49232
992421258,-3114.068393
992422258,-2331.165235
992423258,-1736.275173
992424258,-864.532285
992425258,-191.218165
992426258,55.153701
992427024,-866.339921
992428024,-7644.222043
992429024,-9010.462266
992430024,-7747.71416
992431024,-7548.211592
992432024,-8428.816962
992433024,-7895.55829
992434024,-5033.491881
992435024,-1803.781608
992436024,-147.549363
992436789,-8318.488141
992437789,-16827.51984
992438789,-16027.96601
992439789,-10941.75606
992440789,-7020.086071
992441789,-4549.560606
992442789,-2113.070235
992443789,-221.410237
992444789,357.225633
992445789,232.388868
992447532,-5952.706593
992448532,-11818.99055
992449532,-10988.17475
992450532,-7108.538755
992451532,-4318.686304
992452532,-3005.403247
992453532,-1850.711773
992454532,-684.896062
992455532,-39.547659
992456532,103.098933
992457297,-4306.630838
992458297,-9861.925384
992459297,-9912.345819
992460297,-7328.33129
992461297,-5262.123459
992462297,-3844.686851
992463297,-2215.673053
992464297,-720.497556
992465297,-3.18044
992466297,116.974051
992467063,-2080.346913
992468063,-7347.733109
992469063,-8276.972971
992470063,-7320.482959
992471063,-6753.610899
992472063,-6008.599497
992473063,-4080.400589
992474063,-1761.177286
992475063,-340.30755
992476063,83.874915
992476829,-4356.724295
992477829,-9139.592299
992478829,-8273.96038
992479829,-4824.017428
992480829,-2758.156358
992481829,-2646.995986
992482829,-2655.724037
992483829,-1755.198141
992484829,-610.009934
992485829,-22.459639
992487571,-8474.844691
992488571,-12507.75322
992489571,-10575.4245
992490571,-5878.306239
992491571,-1549.695134
992492571,1962.626091
992493571,4190.227918
992494571,3899.265921
992495571,1877.558248
992496571,378.781232
992502219,15127.01892
992503219,24771.46045
992504219,23367.24839
992505219,15324.5092
992506219,5832.674146
992507219,-3277.379665
992508219,-9238.067609
992509219,-8794.982398
992510219,-4214.587832
992511219,-851.568747
992516868,18315.56012
992517868,19727.65019
992518868,13397.49712
992519868,3804.136372
992520868,-5693.074057
992521868,-14321.02504
992522868,-18584.35702
992523868,-14635.3899
992524868,-6344.38502
992525868,-1028.817812
992526633,-16709.73628
992527633,-21934.75028
992528633,-18401.79884
992529633,-11573.1528
992530633,-4034.755653
992531633,5279.48496
992532633,12779.39299
992533633,12298.67293
992534633,5915.147059
992535633,1125.05099
992536399,33727.88578
992537399,29780.37382
992538399,21816.07394
992539399,11535.76517
992540399,-7035.36154
992541399,-35300.66368
992542399,-54768.1558
992543399,-46094.4645
992544399,-20510.72556
992545399,-3371.638407
992546164,-49482.06584
992547164,-86568.15207
992548164,-85012.01186
992549164,-64061.54643
992550164,-38587.4686
992551164,-6344.68762
992552164,23778.91897
992553164,30764.08794
992554164,16646.5291
992555164,3711.969641
992556907,-260.620256
992557907,14124.33571
992558907,26647.21908
992559907,32082.34492
992560907,25772.99705
992561907,8172.414579
992562907,-9468.168339
992563907,-14163.9843
992564907,-7743.616816
992565907,-1707.488284
992566672,-4111.431025
992567672,-12219.44743
992568672,-12742.90551
992569672,-7171.824286
992570672,-1816.651066
992571672,-1144.711226
992572672,-3443.978858
992573672,-4040.72776
992574672,-2087.25237
992575672,-330.930761
992576438,-10387.36712
992577438,-30469.81207
992578438,-34365.8855
992579438,-27844.93223
992580438,-19839.57281
992581438,-12343.42615
992582438,-4973.67458
992583438,-83.499387
992584438,1065.03034
992585438,583.94616
992586204,-14660.37956
992587204,-28143.8743
992588204,-27127.1146
992589204,-19756.16054
992590204,-13323.96662
992591204,-7008.326111
992592204,-178.121139
992593204,3351.732095
992594204,2478.604758
992595204,739.683982
992596946,-28560.24904
992597946,-29091.8011
992598946,-21623.01836
992599946,-9363.685504
992600946,7364.363938
992601946,26552.96506
992602946,36977.05476
992603946,29392.71921
992604946,12648.75679
992605946,2024.944722
992606711,32200.98812
992607711,53841.25895
992608711,53670.04992
992609711,40173.05888
992610711,20327.10906
992611711,-4258.085472
992612711,-23467.67528
992613711,-24330.27436
992614711,-11996.4118
992615711,-2438.378685
992616477,26215.56731
992617477,24172.25549
992618477,20514.68214
992619477,15161.71265
992620477,208.179079
992621477,-26818.66972
992622477,-47565.59047
992623477,-41810.99887
992624477,-18995.19004
992625477,-3216.11142
992626243,-49223.07662
992627243,-77121.0428
992628243,-69424.06559
992629243,-43850.25598
992630243,-17323.39181
992631243,7683.419771
992632243,25414.90358
992633243,25316.53649
992634243,12450.61486
992635243,2572.567927
992636985,-1818.205299
992637985,-10449.78715
992638985,-12276.80265
992639985,-9495.379855
992640985,-7052.807456
992641985,-7024.773466
992642985,-7321.014164
992643985,-5414.018055
992644985,-2219.232782
992645985,-248.295664
992646750,-4173.113692
992647750,-15098.99086
992648750,-14372.68255
992649750,-9389.113504
992650750,-9167.260141
992651750,-13802.06387
992652750,-16112.37468
992653750,-11750.51188
992654750,-4672.125681
992655750,-558.639777
992656516,-28492.62636
992657516,-45124.51615
992658516,-43797.89877
992659516,-32708.26641
992660516,-16910.81395
992661516,4044.128491
992662516,21529.08582
992663516,22644.11105
992664516,11263.03966
992665516,2271.407088
992666282,22516.6725
992667282,18778.23695
992668282,10461.00839
992669282,-290.158887
992670282,-13167.33639
992671282,-26013.59653
992672282,-30930.6747
992673282,-22836.99466
992674282,-9372.58282
992675282,-1364.741932
992677024,-14998.9325
992678024,-24529.87211
992679024,-18195.38639
992680024,-7564.72507
992681024,-4008.459396
992682024,-6412.090485
992683024,-7374.163063
992684024,-4606.646362
992685024,-1396.181622
992686024,-9.753675
992686789,-8161.51922
992687789,-3210.219101
992688789,3575.581327
992689789,7769.268565
992690789,8177.169258
992691789,6454.160656
992692789,4118.308524
992693789,1929.626228
992694789,505.759063
992695789,-25.456506
992696555,24862.63161
992697555,15616.68671
992698555,6334.104421
992699555,-516.061022
992700555,-11021.91809
992701555,-28617.98576
992702555,-40971.82946
992703555,-33845.95272
992704555,-14924.89305
992705555,-2369.67932
992706321,-61882.04679
992707321,-91903.45881
992708321,-85249.09884
992709321,-57706.08308
992710321,-21683.489
992711321,20382.05842
992712321,51285.11692
992713321,48740.29441
992714321,23245.73578
992715321,4460.334294
992716086,18275.30837
992717086,28983.80919
992718086,25686.79772
992719086,16673.52768
992720086,8716.903507
992721086,436.463628
992722086,-7589.508043
992723086,-9510.624027
992724086,-5195.229858
992725086,-1153.282393
992726829,8524.308684
992727829,-16487.39387
992728829,-29868.8793
992729829,-34333.52536
992730829,-36384.72874
992731829,-35321.0375
992732829,-27181.80987
992733829,-14357.24845
992734829,-4203.098298
992735829,-29.597448
992736594,-39974.49139
992737594,-55736.20422
992738594,-48621.35631
992739594,-31205.31684
992740594,-11325.76619
992741594,11717.6022
992742594,29359.5006
992743594,28179.65856
992744594,13530.2041
992745594,2603.500289
992746360,4203.021533
992747360,15747.3909
992748360,22720.30197
992749360,26609.91854
992750360,24625.57206
992751360,12218.23177
992752360,-4239.837891
992753360,-11108.34709
992754360,-6853.687425
992755360,-1632.782308
992756125,26024.72344
992757125,-2425.987795
992758125,-24852.03113
992759125,-40396.39761
992760125,-51880.97679
992761125,-55393.35567
992762125,-44835.34226
992763125,-24607.71695
992764125,-7604.273135
992765125,-332.365487
992766868,-48516.40438
992767868,-41137.59384
992768868,-5110.042857
992769868,30623.77818
992770868,41353.45513
992771868,27296.2633
992772868,6600.846947
992773868,-4196.912298
992774868,-3900.550055
992775868,-1114.492294
992776633,-5786.624901
992777633,-37370.89385
992778633,-53912.01551
992779633,-58054.77097
992780633,-51095.89561
992781633,-29658.33243
992782633,-2498.770165
992783633,11327.12439
992784633,8432.693514
992785633,2377.620397
992786399,-15501.98984
992787399,3291.612119
992788399,20418.06528
992789399,29010.12951
992790399,28875.98289
992791399,22872.18551
992792399,14005.61653
992793399,5865.9398
992794399,1208.82059
992795399,-242.145235
992796164,56440.69705
992797164,56958.51652
992798164,45489.14876
992799164,27566.74689
992800164,-3187.996966
992801164,-49116.44464
992802164,-82051.23297
992803164,-70844.03769
992804164,-31999.05699
992805164,-5421.869766
992806907,-90577.7637
992807907,-142092.3088
992808907,-129071.7152
992809907,-80616.99917
992810907,-28129.20184
992811907,21836.65621
992812907,56511.61788
992813907,54478.08061
992814907,26470.21067
992815907,5311.571511
992816672,8889.413179
992817672,19350.55421
992818672,24202.08878
992819672,23027.80106
992820672,14847.33346
992821672,42.733367
992822672,-13078.64708
992823672,-14684.37993
992824672,-7415.68746
992825672,-1505.950704
992826438,-8648.995577
992827438,-11274.2282
992828438,-7207.803668
992829438,-112.520836
992830438,4591.371775
992831438,4681.480004
992832438,2068.677377
992833438,-3.417592
992834438,-387.702871
992835438,-118.28948
992836204,-17090.36804
992837204,-18042.74797
992838204,-13392.56048
992839204,-4530.449885
992840204,6850.679676
992841204,17647.97425
992842204,21739.21686
992843204,16052.43493
992844204,6568.588479
992845204,985.140816
992846946,41078.7829
992847946,37216.86881
992848946,25799.01495
992849946,10039.42502
992850946,-13310.56718
992851946,-42588.96932
992852946,-59037.68864
992853946,-46907.74964
992854946,-20132.42185
992855946,-3170.682556
992856711,-53239.71541
992857711,-81663.52604
992858711,-71064.41121
992859711,-41609.99661
992860711,-13666.40087
992861711,9518.920738
992862711,24686.19649
992863711,23773.0661
992864711,11608.39565
992865711,2404.944296
992866477,-3715.370113
992867477,-11756.74042
992868477,-11645.8533
992869477,-6086.632658
992870477,-2120.527167
992871477,-3499.626531
992872477,-6855.598297
992873477,-6692.146474
992874477,-3192.433048
992875477,-498.430309
992876243,-18752.74784
992877243,-38807.99023
992878243,-44534.09574
992879243,-41661.90181
992880243,-31154.00577
992881243,-9148.548453
992882243,14495.0937
992883243,21288.35537
992884243,11809.48427
992885243,2622.208276
992886985,18588.61319
992887985,34398.65645
992888985,40045.69943
992889985,36798.59055
992890985,22991.60437
992891985,-2275.431431
992892985,-25038.03264
992893985,-27326.90884
992894985,-13678.38775
992895985,-2723.265962
992896750,-15950.84056
992897750,-14070.70224
992898750,-6095.180337
992899750,3242.126912
992900750,10329.03385
992901750,13901.14076
992902750,13032.51936
992903750,8251.719434
992904750,3031.835213
992905750,362.175023
992906516,30744.00204
992907516,20603.84903
992908516,6565.611028
992909516,-7681.162435
992910516,-22981.53228
992911516,-38336.39283
992912516,-43856.77024
992913516,-32142.09147
992914516,-13163.76777
992915516,-1863.066071
992916282,-33230.25835
992917282,-57617.76168
992918282,-52546.09448
992919282,-33594.02478
992920282,-16934.72475
992921282,-4093.267957
992922282,5828.974205
992923282,8690.77135
992924282,5021.046675
992925282,1299.004009
992927024,-53564.973
992928024,-53199.41576
992929024,-32712.57635
992930024,-1287.952437
992931024,30666.43741
992932024,53402.82811
992933024,55867.99697
992934024,37250.11783
992935024,14117.4361
992936024,1853.79249
992936789,36249.46869
992937789,12723.67993
992938789,-17048.8466
992939789,-39177.52555
992940789,-47431.12634
992941789,-43316.99496
992942789,-30814.28111
992943789,-15693.60329
992944789,-4630.245227
992945789,-87.942515
992946555,-13907.65298
992947555,-28700.28461
992948555,-28023.75343
992949555,-23480.02733
992950555,-21664.71513
992951555,-16925.05526
992952555,-6730.592246
992953555,1306.763276
992954555,2507.43611
992955555,950.108059
992956321,-8032.704301
992957321,3269.206103
992958321,17499.00727
992959321,27991.3556
992960321,27304.2324
992961321,13309.5843
992962321,-4095.891329
992963321,-10929.80592
992964321,-6651.489276
992965321,-1562.755534
992966086,-12270.90327
992967086,-35495.64583
992968086,-49201.68235
992969086,-54256.35364
992970086,-45177.67324
992971086,-15188.06717
992972086,19639.58896
992973086,30493.50317
992974086,17134.05138
992975086,3772.693942
992976829,70624.39418
992977829,105452.9913
992978829,106084.3533
992979829,83464.65456
992980829,39463.01704
992981829,-26947.97468
992982829,-81369.915
992983829,-80176.39954
992984829,-38685.03173
992985829,-7359.377334
992986594,-41121.41344
992987594,-90198.1236
992988594,-96362.26574
992989594,-79183.14149
992990594,-56551.97316
992991594,-26124.26702
992992594,6289.382611
992993594,20063.886
992994594,12898.94393
992995594,3400.914045
992996360,-35510.54398
992997360,-29330.15849
992998360,-11598.66528
992999360,6554.692514
993000360,19881.38094
993001360,29033.7479
993002360,30937.04333
993003360,22100.17951
993004360,8993.874
993005360,1279.669129
993006125,38134.20535
993007125,44612.59346
993008125,34898.87929
993009125,18288.68273
993010125,-909.750089
993011125,-22982.30413
993012125,-37763.12592
993013125,-32519.16723
993014125,-14761.54622
993015125,-2575.187435
993016868,-26235.14777
993017868,-36241.1526
993018868,-23361.40214
993019868,-2006.063393
993020868,9651.919928
993021868,6996.771267
993022868,-1154.151649
993023868,-4765.672346
993024868,-2875.129304
993025868,-535.016128
993026633,-9534.579845
993027633,-38487.1887
993028633,-46418.82461
993029633,-41469.06058
993030633,-34468.96014
993031633,-25682.15341
993032633,-13640.76487
993033633,-3466.111227
993034633,578.240253
993035633,792.615832
993036399,-44026.4896
993037399,-49006.3798
993038399,-35555.47368
993039399,-17131.4916
993040399,1312.34768
993041399,23246.3576
993042399,39674.24548
993043399,35275.87931
993044399,16377.48391
993045399,2911.196693
993046164,24444.11994
993047164,53471.32266
993048164,60140.92277
993049164,55011.51798
993050164,42901.5667
993051164,18150.05323
993052164,-10561.59598
993053164,-21450.12855
993054164,-12843.26987
993055164,-3071.184894
993056907,40352.51984
993057907,6061.835137
993058907,-28485.57672
993059907,-53768.59268
993060907,-66568.41245
993061907,-66583.48774
993062907,-53280.51257
993063907,-30683.27558
993064907,-10379.15898
993065907,-732.916335
993066672,-69622.91332
993067672,-93529.27403
993068672,-75388.39665
993069672,-40407.32157
993070672,-7923.925197
993071672,22151.39877
993072672,42768.81364
993073672,39079.08635
993074672,18512.95278
993075672,3535.122155
993076438,18454.18885
993077438,29793.80851
993078438,27753.01906
993079438,16977.39035
993080438,4310.381424
993081438,-6589.219779
993082438,-12251.92909
993083438,-10377.00194
993084438,-4661.741123
993085438,-888.590425
993086204,9976.775623
993087204,21562.71376
993088204,27552.74026
993089204,27820.51231
993090204,19822.24007
993091204,1829.324238
993092204,-16070.42399
993093204,-19368.26134
993094204,-10088.63371
993095204,-2076.732317
993096946,-30023.66868
993097946,-46272.57378
993098946,-44638.33013
993099946,-26922.89978
993100946,-1250.641828
993101946,21635.11495
993102946,30408.44416
993103946,22574.42669
993104946,9172.483081
993105946,1505.039758
993106711,26814.50197
993107711,3471.115768
993108711,-14732.73548
993109711,-26660.75049
993110711,-37883.5649
993111711,-48187.7523
993112711,-47793.95957
993113711,-31983.70462
993114711,-12158.13299
993115711,-1389.670584
993116477,-66361.28604
993117477,-80433.51523
993118477,-59610.71879
993119477,-25000.83076
993120477,6939.306965
993121477,34090.30224
993122477,48653.05171
993123477,39817.19967
993124477,17722.29314
993125477,3086.00096
993126243,11540.0829
993127243,31408.98591
993128243,36941.80849
993129243,34272.54751
993130243,27916.63202
993131243,15418.37471
993132243,-11.163155
993133243,-7683.406749
993134243,-5442.6175
993135243,-1497.67729
993136985,35127.93905
993137985,17858.35996
993138985,145.102028
993139985,-13593.2784
993140985,-28213.37725
993141985,-45736.61016
993142985,-53566.98905
993143985,-40110.91611
993144985,-16648.68102
993145985,-2368.745271
993146750,-65565.0812
993147750,-91632.30179
993148750,-78675.39446
993149750,-47423.94259
993150750,-13715.79123
993151750,21496.96011
993152750,46533.87503
993153750,43261.24041
993154750,20529.83848
993155750,3919.424003
993156516,32729.39777
993157516,39358.83109
993158516,34399.53782
993159516,22768.20443
993160516,4265.227744
993161516,-21628.11688
993162516,-40687.79607
993163516,-36345.731
993164516,-16738.68625
993165516,-2958.56118
993166282,-27103.66229
993167282,-53698.3709
993168282,-55136.06333
993169282,-41501.70306
993170282,-24384.83836
993171282,-6162.58314
993172282,8902.47345
993173282,12752.66246
993174282,7094.72234
993175282,1716.292714
993177024,-25039.86438
993178024,-22028.09204
993179024,-8350.728194
993180024,7994.815622
993181024,19419.84338
993182024,22547.39075
993183024,17727.91732
993184024,9249.734056
993185024,2742.268414
993186024,159.116584
993186789,-5428.226909
993187789,-6610.26071
993188789,-7154.537594
993189789,-5593.021997
993190789,-439.471092
993191789,6980.485172
993192789,11494.54601
993193789,9478.758954
993194789,4111.666412
993195789,672.677803
993196555,20537.93396
993197555,15274.09291
993198555,5458.462477
993199555,-4662.259843
993200555,-13839.16519
993201555,-21891.12932
993202555,-24492.19366
993203555,-17891.30715
993204555,-7354.664162
993205555,-1051.410415
993206321,-16049.63102
993207321,-31023.77738
993208321,-31753.63458
993209321,-26600.84579
993210321,-20318.06092
993211321,-9307.222344
993212321,4128.492568
993213321,9780.336247
993214321,6067.020927
993215321,1494.756009
993216086,19069.02124
993217086,27696.56598
993218086,33269.99298
993219086,31881.76581
993220086,15723.33166
993221086,-15324.1453
993222086,-40760.48549
993223086,-38905.65371
993224086,-18346.05233
993225086,-3334.052577
993226829,-28740.10523
993227829,-53994.53025
993228829,-50913.56432
993229829,-34497.09799
993230829,-20399.39631
993231829,-9353.151525
993232829,586.591484
993233829,5295.84327
993234829,3767.514766
993235829,1149.085596
993236594,-16815.4259
993237594,-28906.55412
993238594,-25988.55073
993239594,-16568.8534
993240594,-8876.056559
993241594,-3073.946043
993242594,1834.742126
993243594,3688.70523
993244594,2290.511338
993245594,627.647968
993246360,-7817.150947
993247360,-13843.29404
993248360,-13625.53193
993249360,-10537.96233
993250360,-6894.028799
993251360,-2056.849731
993252360,2774.645159
993253360,4243.739842
993254360,2406.592027
993255360,563.619383
993256125,556.421268
993257125,3530.043175
993258125,7176.336903
993259125,9592.414798
993260125,7796.166216
993261125,936.696388
993262125,-6202.469182
993263125,-7523.147578
993264125,-3892.911782
993265125,-782.757364
993266868,-2053.138336
993267868,-8602.263528
993268868,-7517.073749
993269868,-3331.373126
993270868,-3006.592219
993271868,-7602.545683
993272868,-11306.45885
993273868,-9258.622012
993274868,-3968.543021
993275868,-568.968998
993276633,-10757.45636
993277633,-24365.38712
993278633,-24557.65541
993279633,-18137.84842
993280633,-12744.5208
993281633,-8604.740345
993282633,-3944.168591
993283633,-334.735551
993284633,698.406626
993285633,414.399368
993286399,-21769.01536
993287399,-27589.08185
993288399,-22711.0227
993289399,-12375.90084
993290399,-404.612463
993291399,12080.60303
993292399,19742.85191
993293399,16767.59113
993294399,7551.039744
993295399,1329.606397
993296164,23559.29312
993297164,23798.79547
993298164,17260.35401
993299164,8077.40486
993300164,-3832.859905
993301164,-19004.60659
993302164,-28934.77494
993303164,-24207.88734
993304164,-10771.284
993305164,-1794.788233
993306907,-26574.43785
993307907,-41459.47365
993308907,-36221.99416
993309907,-20934.61162
993310907,-6551.961718
993311907,5052.097063
993312907,12593.488
993313907,12125.13173
993314907,5942.492836
993315907,1232.336198
993316672,4440.242282
993317672,-1120.101385
993318672,-3642.403871
993319672,-4563.933409
993320672,-7064.499816
993321672,-11168.17481
993322672,-12802.5133
993323672,-9295.246105
993324672,-3729.967921
993325672,-486.996511
993326438,-11680.77556
993327438,-19627.4906
993328438,-16624.06754
993329438,-8832.49585
993330438,-3266.339386
993331438,-1000.829701
993332438,-58.291273
993333438,402.593099
993334438,372.855929
993335438,176.672408
993336204,-2591.59737
993337204,-11612.07886
993338204,-13225.71112
993339204,-10954.6687
993340204,-9574.685817
993341204,-9382.651469
993342204,-7926.92162
993343204,-4631.13486
993344204,-1501.795266
993345204,-51.44666
993346946,-10282.03016
993347946,-17969.11525
993348946,-15865.09447
993349946,-9857.547862
993350946,-5589.89731
993351946,-2988.607512
993352946,-603.850816
993353946,831.963608
993354946,779.139817
993355946,286.183038
993356711,-5627.354279
993357711,-11675.86044
993358711,-10986.25442
993359711,-7142.565898
993360711,-4429.828043
993361711,-3282.794866
993362711,-2207.92085
993363711,-936.524033
993364711,-131.774662
993365711,92.406066
993372336,-4942.098535
993373336,-11259.77355
993374336,-11273.64379
993375336,-8317.370776
993376336,-6044.082398
993377336,-4423.077626
993378336,-2364.061096
993379336,-526.291462
993380336,184.575392
993381336,174.585118
993382102,-6482.312966
993383102,-9717.093017
993384102,-8351.963929
993385102,-4714.551124
993386102,-1224.646017
993387102,1441.833683
993388102,2845.992504
993389102,2481.415242
993390102,1144.538958
993391102,231.007254
993391868,4080.778806
993392868,50.812999
993393868,-2344.215194
993394868,-3563.037141
993395868,-5458.228333
993396868,-8303.233577
993397868,-9519.190119
993398868,-7032.00243
993399868,-2882.196098
993400868,-391.061934
993401633,-6042.260625
993402633,-14889.18452
993403633,-15461.36163
993404633,-11918.56251
993405633,-8941.306194
993406633,-6650.707887
993407633,-3779.10184
993408633,-1143.866643
993409633,56.704786
993410633,208.298399
993412375,-8570.374496
993413375,-14042.99497
993414375,-11600.0045
993415375,-5997.648029
993416375,-2306.942388
993417375,-801.936035
993418375,159.261344
993419375,703.140535
993420375,533.517197
993421375,183.296776
993422141,-1478.094697
993423141,-6283.181096
993424141,-6660.672898
993425141,-5012.386898
993426141,-4519.976272
993427141,-5319.523668
993428141,-5314.827428
993429141,-3525.053705
993430141,-1294.985418
993431141,-115.124815
993431907,-4912.486112
993432907,-10759.5651
993433907,-9819.15555
993434907,-5831.822549
993435907,-3614.876114
993436907,-3740.952971
993437907,-3796.720967
993438907,-2510.163829
993439907,-880.85114
993440907,-44.660488
993441672,-6797.126585
993442672,-13322.56826
993443672,-13194.87224
993444672,-10011.71897
993445672,-6891.83905
993446672,-3385.769455
993447672,390.673813
993448672,2155.194411
993449672,1464.06206
993450672,407.275426
993462180,-8026.450091
993463180,-14130.70195
993464180,-12355.26181
993465180,-7242.962554
993466180,-3658.016422
993467180,-1904.400687
993468180,-557.553702
993469180,342.031901
993470180,420.342795
993471180,181.302106
993471946,-3166.113671
993472946,-9693.793616
993473946,-10224.05398
993474946,-7428.02143
993475946,-5405.037729
993476946,-4893.349324
993477946,-4158.398705
993478946,-2453.492934
993479946,-783.652101
993480946,-8.533134
993481711,-6447.170647
993482711,-12514.64453
993483711,-11975.23612
993484711,-8246.770985
993485711,-5000.382041
993486711,-2458.68391
993487711,-146.165176
993488711,1028.845426
993489711,792.5729
993490711,256.285708
993491477,-1746.478447
993492477,-6106.269903
993493477,-6360.622066
993494477,-4231.690565
993495477,-2894.844641
993496477,-3253.332622
993497477,-3647.200454
993498477,-2675.651421
993499477,-1056.837068
993500477,-108.839267
993502219,-3484.516257
993503219,-9142.419744
993504219,-9451.902173
993505219,-7151.184152
993506219,-5479.005568
993507219,-4543.375296
993508219,-3140.261192
993509219,-1409.441965
993510219,-279.647346
993511219,76.94581
993511985,-4533.756729
993512985,-9574.772179
993513985,-9136.480354
993514985,-5962.179796
993515985,-3540.216352
993516985,-2471.020015
993517985,-1687.172702
993518985,-796.043315
993519985,-163.034167
993520985,59.144529
993521750,-4098.084808
993522750,-9193.627043
993523750,-9531.76272
993524750,-7012.538249
993525750,-4292.92711
993526750,-2043.452309
993527750,-230.267066
993528750,632.042005
993529750,512.396729
993530750,179.42602
993531516,-2011.644567
993532516,-4858.459392
993533516,-4117.193029
993534516,-2309.206662
993535516,-2129.540509
